Feature1,Feature2,Feature3,Feature4,Feature5,Feature6,Feature7,Feature8,Feature9,Feature10,Feature11,Feature12,Feature13,Feature14,Feature15,Feature16,Feature17,Feature18,Feature19,Feature20,Feature21,Feature22,Feature23,Feature24,Feature25,Feature26,Feature27,Feature28,Feature29,target
1.9428333106117224,1.7935565645935876,-6.121473670043061,-1.0311320554590107,0.4871069289051863,-0.3461161550943364,0.24249282702428884,-0.2550906399606736,-1.9337926224927722,0.45612853122045227,0.9233590324247396,0.7373017001449977,-0.7805400392745918,-1.628520867457363,1.421999299900325,0.7040113372461523,-0.0014644237035162319,0.38300002369588776,0.7195895421787306,0.7534480118367349,0.021294281219429414,-0.8767906987588466,-2.8043823768193805,-0.7727520798326173,0.9022501592412492,-0.2838208531434306,1.1581096650024707,-0.7031442157868841,-1.1425074809716356,8
-0.49826600284092337,4.2903552463023225,0.9240833643413706,-1.2814926597773688,8.153378162985156,-2.302476288510613,0.61529633729858,-3.871440664646847,1.4911847223069508,3.666561043153924,2.7853667167595906,-1.6365750736870295,-0.7202330528121238,-2.834808921001163,0.9402426634941012,-0.7423873261707327,0.10511466435318978,0.06443120766825103,-0.25372684574643883,-0.11030892245808932,-0.03022582701852793,1.0767762520505104,-1.4266617668720238,0.743056580056939,0.2128675928928772,1.0439472171319029,0.9482726284656011,0.7061282593258138,-0.4911247045984722,8
-1.027512135398705,3.363755384266737,1.828574155716523,-0.4958022638920728,7.458819667104317,-2.4848516691475355,0.3784148589272917,-2.24870048995012,-1.3014244729591151,4.136351362401566,1.7701746661376883,-1.423328705583,-1.2443202022138666,-2.200412975389129,-0.30197670386389086,-0.8901549103712071,-0.05149065002242261,0.553461727607112,-0.2925400929718107,-0.758677223822494,0.4721011583104421,1.2069315589454606,-0.923403976724513,0.566656728710279,0.29307100619132676,-0.14507820069745103,1.7596494074338704,0.5163513694145941,0.49242911262122113,8
2.7367558434648473,-2.2417307509207856,0.4046603764267591,-0.16786078080853814,-0.12544232125330296,0.4967062504912583,1.6643816911320501,-1.2710255420037704,0.21378150536393314,0.9620992796034417,-0.17430990352872097,-1.3308029595075883,-1.1808661473954198,0.6171751074670778,0.5251329744935939,1.0378156813760209,-1.295388742655423,-0.7833801787172845,-0.8162290966327702,0.6973728996113969,-1.3766142670611383,-0.559114465471008,-0.33562009401969856,0.08859136448626206,0.08012082774548882,-0.08582815405763468,0.038390350910337115,-0.0969087010050426,-0.426435988272657,8
0.6857956205129245,0.22338526597995595,-2.080130724779271,-0.01141448982657778,4.09011805191512,0.6501766300205275,2.411078021127402,2.6376640698768794,-1.59405740805562,0.28337090961903233,1.07666822979559,1.3416392345008386,2.186068937112221,1.7960402865407619,-0.2535649027052675,0.15269607579819114,0.9484897704505426,-2.2626047004721985,0.4388659049924975,0.16281468062602453,0.5409010423050523,0.35473108510158485,-0.9331717450685137,-0.8886060777450814,0.9020166532143247,0.5067908503412548,0.6402921484542125,0.12901021946947822,0.09222846743198668,8
2.6372629932363703,0.6450211805942284,-0.5592986327175951,1.622356923588804,-0.28153950571358843,-0.567886475207861,-1.1218408465947538,-0.3567800013024665,-1.3128324593420249,0.07691144113739383,0.25157741903496555,1.771521044682063,-1.7344322861082924,1.9155532979447043,-0.703412860388696,-0.6021082118095841,-0.11049748386352876,-0.35720102956778405,-0.263427653062282,-0.23704090096338332,1.894731891413708,-0.3095294671483513,0.22146228375665686,0.7805163147535433,0.5787089773093947,1.026511892060775,-0.7364283452228794,-0.6366784844678507,0.38721929626581025,8
1.483759481554324,0.8364234724065517,-0.6592770254531355,2.6759810923985574,-0.06339554506971375,-0.47859147800713575,-0.8637806863286517,-0.7838785894005378,-1.1028691345274024,-1.0496371149503658,0.1913105730968603,2.1493773486061505,-1.1914196895584155,0.9947774526595291,-0.5029841975868415,-0.8473354943453996,0.26407243885781667,-0.2899844928362419,-0.2489108750036346,0.20839918691099563,2.2227826921784097,-0.08602028804320573,0.5688814669418308,1.684163038779184,0.8350981011379909,0.43124365765733524,-1.1288898021168208,-0.6485610802874151,0.6407275736080852,8
5.433284055077177,2.326533661402369,1.0979902468263991,-0.3554672778576998,0.23146223282287742,0.19513330175238244,-0.13150146689936124,-1.1599750425611788,-0.3439706996971117,-1.3510143057358188,-1.2055241123737306,-1.1920212722737331,0.49393757601572985,0.5033800427185426,1.921017002156418,0.13592906701257826,0.16228031893242595,-1.258668517169888,1.2453400578048643,-1.281097927277558,0.6130524382341574,-1.786893101920948,0.34353594875129567,0.0778450848516803,-0.35756957217187774,0.8985380599864647,-0.004672808720451389,0.08035060411794032,-0.004376565548906921,8
4.900899643217569,3.002036490092808,0.6974233094573771,-0.8385295398657675,0.16993515916323612,0.3638635016194065,-0.06815460950555571,-1.888870221099442,0.25208964377799137,-1.971541812453504,-2.0024437825221373,-0.3692570426245557,0.5010834742130718,0.1473235556800509,1.0753310314420157,-0.4359805872883046,0.05037272507125816,-1.026971399761339,1.6974853896998163,-0.9549827395974777,0.0716693029996936,-1.9507680690146891,0.3388282723644929,-0.2867693288264156,0.020513082563540726,0.9416748210057944,-0.17866433299599038,-0.714040234388763,-0.8617649195308286,8
6.028872882596128,2.354449025535617,0.759728228780796,-0.09107158255776258,-0.8390579929240709,-0.6202666743679341,-0.603941781095664,-0.3687492098989422,-2.0540286013238944,0.08747434493711141,-1.637809741067108,-0.5838539456223718,0.1516064110198019,0.31539650295768906,0.5315940605047307,-0.5306460593109769,0.49064484381447365,-0.03554105250703217,0.7863573029308074,-1.7789310976965886,0.45036410343047995,-0.9631078797289196,-0.2803072667297395,-0.460375733130697,0.4745304938521161,0.018824174459350963,0.43570269972414105,0.519528676579636,1.1959621713374524,8
3.253897625376621,2.540705155607768,0.10888682903753141,-0.6472662292925562,-1.3421709335753191,-0.5653371859731209,-0.3649633460112618,-1.5808491779726472,-1.9452932807017023,0.12939893607704647,-1.3734546138406867,-0.330858991758364,0.019257539933008938,0.18880135424534975,1.6005650169066672,0.2208332760403979,0.008758474563482485,0.221900506823055,0.6873580987064755,-1.1539368414261304,0.4570705922904983,-1.070178635993141,0.7770973837591932,-1.0261337259787477,-0.005038572567428912,0.8526321178857921,0.281898862085203,-0.044932060057420765,0.1985894786060721,8
-1.9508880300925477,-1.4358110827094417,-1.1008491373230749,-0.7480200600430436,0.22989363312494737,0.6410970432416597,-0.7822667388441849,-2.158381860544593,-0.7160269246919098,-1.0581887534802155,-1.591678222080513,0.13769717501703593,-0.16213264469589722,0.2021979524409383,1.1588104142733944,-0.3769497886267716,-0.28399449641983343,0.4954932051851585,-0.04226073070166925,-1.6113127735991508,-0.5321308654853842,-0.7692081566318492,0.11013687509833942,-0.5433038726478968,-0.227143881616808,0.33087698649232894,-0.0024441434828429876,-0.039894942291681446,1.1987439116677776,8
2.320460238686839,0.5826850565328151,0.44718609722225344,6.396757090858609,-1.0805906288367433,-0.7826666984023446,1.2860668178597865,-1.8969646278224108,-1.5204522752545302,-0.17577042273660548,0.5573272264724672,1.1232116868455262,-1.2812526619251228,0.9350176278184293,-0.7921549721234249,0.3139230139069593,-1.2682347513895267,-1.7413732179823194,-1.6260301005878501,2.37010778565489,0.42870368960646726,1.690804050075526,-0.918117144659422,0.29278010283408445,0.2219248245406854,1.0264432686261025,-0.09003589408706911,-1.2389074440491235,1.2505127821144557,8
2.15648992273283,-0.4575487570297108,0.42870494401158965,1.1279080013911766,-0.16632310995842173,-1.1906350441687987,0.16081936251564147,-1.2013054360082411,-2.9893451404245055,-0.6037164021838571,-0.5158097168277399,0.23650651299795128,-0.9029134198010547,-0.5124944062972346,-0.26435574002394535,1.054720833349531,1.2135264125896756,-0.6122562094239287,-0.295807594064502,1.5927794158934598,0.29211281165287006,0.6077573452340448,0.3479706059385202,0.9193131074240016,0.04429558451372781,-0.0505179765741166,-1.1457054095116557,0.07795586472000209,0.06953424304788491,8
0.6748455239280999,0.25404891232291066,0.44297065843297645,0.32940975675580403,-0.503649372720994,-1.4925756855985275,-0.17522663825819695,-0.4706903356541152,-2.603490534659257,0.3841836737409208,-0.9812365184775267,0.21726942638816163,-1.6270038917468428,-1.1059670601034095,-0.5426635627366304,2.0436804837441676,0.8408033415730568,-0.2520248173450959,-0.8593588094323464,0.16799100685273702,0.6564565214472458,1.3603026727729521,0.864609147791876,-0.7659514884294316,0.4328078948773835,-0.7729668962653263,-0.5102985314035716,0.6793362036351999,-1.0439685822894351,8
0.9068516743564329,-1.620878533131649,0.4800478364235693,-0.5028430003007716,0.3079356673736408,0.5939739346773982,-0.09520631155666408,-2.4184461752345485,0.7374763926933053,-1.910899905341712,-1.4531625188360344,-0.6646659573922434,0.37314275537200947,-0.3569576680060148,0.9478884200803247,-1.444929384709556,0.4659659221796324,0.025140836604548095,-0.885354146039118,-0.3440309017077512,0.04679338108199258,-0.49778905839312393,-0.7697513222375529,0.2535300152294231,0.426303097161064,0.5166942514159192,0.32347537091818795,0.22286441834443485,0.7327071846899662,8
-0.07636598139975452,-1.9647030102288625,-0.5506093116285273,-0.41970324319197744,0.4927244598761124,0.8116162041914646,1.110333521295875,-2.4084482144008117,0.6753449943386733,-0.2399973455279469,-0.12005503963676575,-1.5668071784436275,-1.1869531230535812,1.419716290834956,1.8531788229756903,-0.8409381551401748,0.42719582001767903,-0.3178387495623908,-0.7354146125022527,0.1549897583261758,0.42015433723816226,-1.0016190034370624,-0.17008888482755485,0.33592806791220664,0.5635550678739462,-0.09102092186802817,-0.10622859989628054,-0.2809285050541062,-0.7862760020862012,8
-0.8337276198080182,-2.233509177737086,-0.21746566601491227,-0.3095644719060567,0.21138859573664218,0.1976336833094382,0.02045551008863886,-1.9273761426472757,-1.5875773380926175,-0.6984822211980037,-1.2631443436453829,-0.8310795424369478,0.27141426011519265,0.46626987760921373,0.8377775922552309,-1.3665905738152389,0.45571777668500457,0.13715753264234354,-0.6025303494518016,0.19488080247081294,0.48283266542711306,-0.4365507822724557,-0.10215212859423482,-0.17572810408900058,1.072067892268218,-0.013490777860896802,0.1567688008137464,-0.18685925404204523,-0.34914677451914666,8
-5.494898903183813,-2.4930025655039256,-3.695983425162319,-0.7519360879462306,0.9266024086044172,0.7469662341576099,0.45687329932758697,-1.5721738333803457,-1.6149210800102183,0.9056543759276133,-0.28700395129304257,-0.9208049284883099,-1.0996663905643038,2.2039786743516934,0.6362972675220944,-0.41506637647525857,-0.4743695892492099,-0.3547596969762019,0.15741638742617006,0.3969474363629712,0.8293387026921407,-0.6956442265700319,-0.6622757513206665,-0.6741511430728483,-0.05210742231847838,-0.42253895100727645,0.313066436122039,0.5600919406276924,-0.3141127401606013,8
-4.95088833404504,-0.7554349648447051,-1.4949644639156243,-0.4311932643421458,1.1812719903745086,-0.09398842352288887,2.074428075112583,-0.10227278934555814,-2.0906320527269955,-0.010933366712744056,-0.971267084697574,1.293076377885294,0.9355749146765145,-0.13219000723820387,0.025815614906012994,1.3351128140387782,0.5019079571363824,2.164440727660785,0.9566312629578164,-0.1387691841295878,-0.8962472672566126,-0.07239519982151162,-0.8840197501598096,0.2744519916279541,0.5330259830767378,0.7419258015407073,-0.7033367214325865,-0.22506234201179554,0.40729601093266415,8
-1.9239054616063995,-1.8944671928972563,0.682561350066082,-0.19866058594612393,3.2416427072112683,0.6713422369224936,2.7462576198563338,1.7433892045717596,-0.733420848783888,-1.814516061761915,0.3994195683523601,-0.3111269427377814,3.261749609421822,0.3534006170693182,0.6310059712483611,0.5950525272833895,0.6067572898041848,-1.783804306368124,-0.4972244610370494,-0.1829127665836643,0.6572521556181666,-1.4292290827718939,-1.311779490295676,-0.9425044831337804,2.100840062134517,0.5985244226059164,0.5083612204678177,-0.3051649893590161,0.5836098858397585,8
-4.720860059375004,1.0696017989285407,0.3270107669270082,-0.3369971306548616,3.3843210436773363,0.6232217935680183,2.5433058526445684,1.4048322477922026,-1.226273153971354,-1.3190279319551894,-0.14434935704222146,1.41114554965834,2.9380237081425604,0.5288484024712667,0.6777554826358935,0.91037032372014,0.5435266718423648,-1.010500653027823,-0.3446913726513929,0.11487638042655592,0.10937206793847415,0.329544932956715,-0.3552405379472105,-1.1820944096252237,1.5997276803300569,0.9633703529299434,-0.38958894222608076,-0.08939052556047862,-0.1132929631523785,8
0.8810886437161878,3.2901964746436745,-9.895086429513356,-2.3816015502610717,0.06268501615563456,0.3707528000345832,3.8928934400540407,-2.1501517404241324,-1.0962229043203093,-0.16187396230843737,0.3726429059687219,0.5863716128758375,1.5566856077084215,-0.6829109315874631,0.2239826411101816,1.4530692963957779,0.2760212242830523,0.7186544359028095,1.2634514730185582,-0.027677950497237758,0.35748293569817535,-0.6728652272521976,1.03124661065267,-0.8874514914518343,0.14693294860698602,-0.56185159113869,0.9731909193805659,-1.1577490330902396,0.07777812812311585,8
5.295477266453426,-0.17484151989413474,0.09940031034195745,0.10801792820915429,-0.48170803507408627,0.36632067525753836,0.04188118827796817,0.08760539241633564,0.2824200047683948,1.1276168838293368,0.9204154079598004,0.6886646375822075,0.22634380454378625,-0.10272303628231663,1.696535668374011,-0.0865265815155816,-0.475672267476819,0.5105449393770558,0.05723045150592775,0.547287395902049,1.2653833761097901,0.07794795367886305,-0.3148556721910351,0.12332171058097631,0.015133443799016932,-0.18103720437713283,-1.3135265392462943,0.8621264728665169,0.8025193892510486,8
3.1992095522328317,-1.6845443804609768,-0.22009502200036138,-0.04935109281600998,-0.19150865196666214,0.6768472881922437,-0.2548192741745562,-0.16776125235842146,0.25984799097558,1.0030029815481392,0.49250370225525203,0.1335968339254598,0.19334779336729285,0.666214315065521,1.056119478036916,-0.7236043660229803,-0.9511657879212063,0.10548272455805499,0.26201373899259767,0.05773230926494536,0.669818668591712,-0.27331577686719855,-1.171614906208737,-0.11759963519743415,0.29171630946012084,-0.5614840687490772,-0.7613778306377822,0.13668182973697526,0.6375179098491337,8
4.95294040661829,-0.988224112853621,0.5183997637453887,0.1732932830249886,-0.4258812253096746,0.30643685676382215,-0.04939565494840648,0.2865665674029588,0.7492160856927186,1.9968527160874692,2.1081614773139186,-0.6270374767143303,-0.9314528164208687,1.461261173820185,2.7062699801391976,0.40677723193655874,-0.5662736646780012,-0.3046293415125083,0.056410509000481425,0.1632169878115556,1.5525881055513886,-0.531854121934734,-0.48692256580824955,0.5090817917264976,0.07953172324379412,-0.1620031840097247,-0.5294253583596275,-0.05939609998365156,-0.06470670039461641,8
5.471362861722624,-0.5173347975144464,0.676998354277494,0.12132276243291978,-0.2492533103456003,-0.33494382664257305,0.14771278466255297,-0.03965584471345178,-0.6562605704315053,1.2935419971288626,0.09254569609840158,-0.7121168380019304,-1.869410934026748,-0.04958748333824638,1.084582890959636,-0.39959250126318374,-1.420963164452113,0.003279963824889004,-0.5322438791445505,0.0809378607407622,-1.0073738666310075,-0.3194514705013493,-0.0034466571401846873,-0.5491479299868914,-0.9956330561904612,0.35125732253756675,0.30261077280095433,0.4646352225395419,0.5096438391413658,8
-1.7551953765468569,3.394077554546372,0.6924293785195246,-0.21380738155248047,-1.6265752126358524,-2.41952766428746,0.03083492667400603,0.6268842757547762,-1.4805313553939994,-0.1796535453116894,-0.8981543544794526,-0.6077295768192256,-1.58432433421076,-1.3489966274880694,0.8286653705714617,0.7816561326375784,0.7340576663644277,-0.600646126195363,-0.41482014265258726,-0.73433446049203,0.7082746469200142,0.21846100171803198,-0.14801521085469313,0.05118087607331523,0.6385594409541585,0.6182245266490048,-0.7425960853498307,0.6954849855886661,0.32773098569997894,8
4.4406018135704075,-0.3978028106923046,-0.7632408143510742,-0.2984862103021424,0.8204509606991235,-0.08007530499002329,2.039575138671321,-0.013198286245612497,-0.3628030552515299,1.0320737452518725,-0.04867723329025802,0.0844067203331346,-2.3130915286971643,-0.40844605541643264,0.5032642487430551,-0.47436489329588444,-1.093765777142547,1.0551430878934793,-0.8093490626985662,-0.00895523203263553,-0.8790871463645167,-1.0282443152876362,0.7643759432416121,0.2062796693724599,-0.09512028693291347,-0.2233311705681582,-0.5000495704225341,0.14329173750638585,-1.2400004139175482,8
-4.107028539508637,1.3222470201972423,-9.621710468022904,-1.6836622458255504,1.0721851108428502,0.2359995481508601,4.250616472139992,-0.8914232531211032,-2.8607780657867607,-0.01028191746012629,-0.7290409953069905,-0.3062329419404793,1.3130481127642584,-1.9252272228378216,1.147093162367199,-0.08298615038263349,-1.1658718881897032,-0.21063631544757638,-0.5224092198854772,0.9991591449830859,0.9492804384546303,-0.8290713344679228,0.16137755171116622,-1.4278612115538427,0.33247977360382963,-0.6850603545470466,0.6597418901891254,-0.43266933856177825,0.7906182824384292,8
-4.040897692118367,-3.2318715619810257,2.4081069056738182,0.2833312344166177,0.7656520025509829,2.932585297441769,0.5808040080183906,0.1145236569481528,-0.22073569369423013,1.1528681922065327,2.184165774461189,-1.2174421620308147,-2.81510548046624,1.3634328096044075,1.0061354018675528,1.29321214730069,0.6162473280790749,-0.48354055896805875,0.9836315091833727,0.2433962753351959,0.3432737494184412,-0.1803449274179647,1.2250557212662296,0.23449478789255365,0.7824856491148765,-0.4073201278614991,1.3231923875779976,0.035269756464299556,-0.7852355106242074,8
-1.527133641577968,-3.1028685507980476,-1.8018839247567526,-0.4702292301856789,0.7367497277465764,1.1189359935344159,0.6325447606191226,-1.707917958858977,0.039313938786205364,0.9241402168289198,-0.3691669600405022,-0.16623303486055907,-1.6348608448802973,1.767424329667999,-0.49955466087532513,0.9251377888957377,-0.11855364491415496,0.8372732233926609,-1.5535904909063065,-1.4747339299783095,-0.8432184819589222,0.7310562752376834,1.5991825190165394,-1.5143533506888056,-0.4603748708803932,-0.3453607615894845,0.41722194012483205,-0.619288953814257,0.538233088563217,8
3.901909206512504,-0.9434236056502638,0.9102485389086695,0.8634651516793472,0.10715240905148089,-0.8267735838187764,0.18893927680716144,-0.9465183791721362,-1.580675426683213,0.08670625903858241,0.01740099752400129,-1.1342421273756025,-2.021947674838873,0.7244560290928941,-0.7311407671920369,0.5051331708642889,2.2454882039480544,-1.3157341231972424,-1.391877757800045,1.9631842394861965,-0.34943748848760425,-0.6772120064769765,-1.4071653497592747,-0.40381568897424647,0.17256810572874928,0.026181066460285576,1.1109892058642523,-0.3477493166696098,-1.3296694741415198,8
2.7656024872031155,-0.5298594541433619,-0.47365400296572785,0.3017949149620761,0.06456044556738723,-0.42317017531215967,-0.23489528077271243,-0.924125948513813,-2.7298632330678148,-0.4180937294317056,-1.113731088113965,-1.820071087013365,0.10179616089767031,-0.3290133893406203,0.4333362890584774,1.0563429267534388,0.66586006459909,-0.787345888891663,-0.06182154943606808,0.4371673791671646,-0.694867552181388,1.076588293073211,-0.794884378190289,1.3862096187405974,0.07999925334844751,-0.11867090721703007,0.4326285888971223,-0.019174519097817477,-0.4095291303485512,8
4.603104706284744,-0.8356857559912736,0.6190062580104443,0.5022396417925512,0.14454950267015934,-0.8048111171744424,1.5478253881830069,-0.5073581675267836,-1.4632607370789075,1.224214519590565,0.28995474903708557,-1.7123739749965596,-2.0479282669629786,0.9835634342783353,0.3817099516295026,0.9129947695199806,0.9485245975709891,-0.49627977343538376,-1.375744614589186,0.9927955072024451,-0.9359052027405685,0.2189149111535246,-0.6129605614750168,-0.1323382648194017,0.9510242603294103,0.7622595281667239,0.6231630874962284,-0.2342674947782866,-1.197015396323791,8
3.9155301568536744,-0.5750286550104508,-0.5816966639671555,-0.3559767491756188,-0.3953391987175867,0.4384914396526504,-1.3918589533273569,-1.511552368276365,-0.5691817458760718,-0.11446735088229111,-0.6992217772825848,0.6460460758027312,0.0013521703037337248,0.04898902152546276,0.9728230946261502,-0.37624615668993744,-0.09235168452044912,0.301674323678684,-1.1243520477542146,-0.7264345615724862,0.6805772831478815,-0.20603859819929776,0.2304319047002678,0.0776534530282191,0.14605988887388718,0.4261142451669075,0.1565310665833253,0.8195488243811312,0.7532891764687262,8
2.257339093402758,-1.143953242861348,0.6779278959544731,-0.2843864937595584,0.7199245426146961,1.302977230486076,-1.695489650555961,-2.2473352547748093,1.4595993096278481,-1.7854778612871782,-0.9555058097629489,0.7064099962147148,0.04679008369104485,-0.4109594242510128,1.4175217186051472,-0.654772622845984,-0.4304339649436663,-0.10899693674636275,-0.24549581313564403,-0.19303548968730846,0.2585942535582713,-0.1055638440530591,0.3239070149753981,0.7503069692687273,0.0009609410593778225,-0.04057164721219851,-0.005219329726419534,0.328669523595565,0.29261977391482097,8
3.1605276757239094,-1.243821926668262,0.9960955117590262,0.15153716883839422,0.5216685372576639,-0.06225774374174789,-1.2586311063597782,-1.4337321324101782,-2.379424445223464,-0.40302775208027114,-2.233341764562114,1.2804127234801568,-0.3962444555647689,0.0893769271180313,-0.6461786701349178,-1.4373243529491677,0.2529711764188945,0.6466202889817884,0.4554871528645633,0.024996153155438898,0.4173789562285397,0.03323053079623398,0.5594011484258848,-0.5132210776833587,0.14033966687259605,-0.13131922995581113,-0.13344411482007829,0.3847952547966387,0.6933159775079165,8
8.658073931216176,3.7535362626472653,-0.3221496646170027,0.009714370566518126,2.050832923280106,0.3603635026051635,-1.512595906298115,2.6288258050070588,-1.116886337939596,-2.8719078969754226,-0.8678477465869616,-3.146493552759546,1.3262614786358267,0.28870291649996505,-2.7908043052849183,-1.1309411530284261,0.5663102965455251,-1.6981275569054157,-2.0768754353532093,0.719770863959827,0.5943939523612016,-1.5503498696053168,-0.05828641465898736,-2.2204350891934994,-0.2058831101465511,-0.10262786739965876,-0.4509027669216009,0.3094933616169167,-0.6925658718315734,8
3.633363060259505,0.33354770539998385,-0.7367147313517254,-0.486192327664294,0.7566710910080001,0.44355653325816985,-0.5696736055929725,-1.7111158894779588,2.024559399344057,-1.3411627983979162,-0.23977590979285074,-0.15464559215578239,-1.9603467746596337,-1.175749168803491,0.4678921116730425,-1.1042821504392624,-0.31961380671893447,-1.4470823487308229,0.36307005172297735,0.7037424093714051,-0.8048151899015993,-0.5819803876170484,0.12237177763249571,-0.069135666477949,-1.2137505425310273,-0.3196206098968018,0.5052674128583035,-0.1196749538437934,0.1999243669823463,8
-1.6279479564290278,-0.8561135177060067,-0.7047088657181566,0.41953506807484625,0.5203060697748191,-1.2000710768181084,-0.6288930438528483,-0.09799650337553496,-2.9627649656373682,-0.6651104942538989,-0.8632982475833595,-0.49936651128892323,-1.2467175230877359,-0.23955757995626684,0.31894330890757333,-0.8209841567123604,0.4517145937394844,-1.2143326253037636,0.4778753270286768,0.6531585190076168,0.002870045449233787,-0.18491747342527542,0.4596762760727257,0.05197578070084859,-0.18222930552044,0.5324505603526821,-0.4972044584383256,-0.377345507187446,0.4866220355899675,8
-2.889774978399208,-3.3585229173016056,-1.5792538677622605,-0.10081434016629713,0.8562001178853212,0.2787383374727989,-0.041154204091679046,-0.5906830729505351,-0.7039109755289001,0.3905764624017809,0.152896485343247,-0.6579516752544502,-1.2164216937984917,1.8442918200751701,0.353775410552887,-1.5472379166965415,0.5665697688196766,0.22153280771199024,-0.22522936791731832,0.1740041822756784,-0.49595114431328624,-0.40202807287260633,-0.34685389380016696,-0.6079674941443058,-0.23992261763717146,0.26130640568563923,0.2594001700101011,-0.1299824763398303,0.08361579743369071,8
-0.22937489761114377,-1.1863865906162507,-2.177549804330298,-0.39121677767287283,-0.6903649997117695,-0.07538622286058526,0.6663573179690525,-0.9938828946341205,-0.44008628823520196,0.15285666912879728,-0.5181157163090684,-0.8956346633171631,-0.06338814033907132,0.6639585499703158,-0.11082515792689829,-2.0017125295154896,-0.17338267515048472,0.5548515000358322,0.521840669657594,0.6493016746397716,-0.16733330740185032,-0.5929893054016048,0.1058573855950175,0.13799827578799417,0.7234740802473884,-0.2050595861550294,0.1645611596849854,0.2752753776709186,0.166788994572883,8
-4.0658316275455535,-3.6101467977183095,-1.0232453976926774,0.2908127073216632,0.25403529912086953,-0.2815880036728167,-0.7210389155854674,0.1996276944465754,-1.3885751428044701,0.22905150393138368,-0.10882087284173433,-0.001728819603847571,-1.253084434506459,1.953530711008504,-0.09996271031825617,-1.0222781476196918,0.3361378459999751,0.21159791100501862,-0.965972000784162,-0.6115818716126719,-0.24762997358712677,-0.44369324555558276,0.14120878217199484,-0.6537476453288249,-0.3073871985726463,1.2545936702500637,-0.5142972270496617,0.4539562117330304,0.08959721878369635,8
5.115425314325539,1.8844333898235852,1.4318393964256206,-0.3113074235654997,0.5296924108098378,-1.0489624404462645,-0.9382718295473071,-1.2061298625213428,0.8353519832282761,0.5195774217838114,-0.03485472210424394,1.2526376480097368,-0.09764136576292873,-1.0521555853872442,0.21996641471382555,-1.4168106234109878,0.30790716669922913,0.44329329263540934,1.1483724750872073,0.024703469838713406,0.15034993878261627,1.2961673647925323,1.257382463681028,0.05157620801824285,0.6836161626417829,0.42161944349778624,-1.6690218922274993,0.4172882108243444,-1.5587980682931548,8
-3.18760423833922,-1.4829082187979072,0.44680072956855377,-0.06761441195907664,1.52005486298509,-0.4685231791311873,-0.2423404100291312,-0.7844235107986913,0.662249625212986,0.10693012159497421,-0.21759178656508102,-0.5944425106461151,-2.0375158355789744,0.9481369691747262,-0.4509903891815263,-1.554286730132944,0.31791476755073855,0.214539537532647,1.0380303645051925,-0.8860353820079718,-0.2583950098203657,0.7278468513733649,0.18881587779678788,-0.6846945806317208,0.2725120923007253,-0.2886292266817762,-0.2518313390293726,0.12209304844824598,-0.10192077413617004,8
2.340664518022384,-0.1275459798284752,1.6585193741589679,-0.00039586398865612137,0.1479490664523606,-0.992688645940103,-1.5347915307680313,-1.248657385080443,-0.4716473301574166,0.8340189880566939,-0.5278423192536688,1.012050085725668,-0.009683420268491965,-0.6725448687380376,0.4134354419123536,-1.3715866465120148,-0.3161710531153225,1.0834526681735792,0.3767127722246302,-0.24635806421245318,-0.17711699563689523,2.2416118004962664,0.9069503784645658,-0.5602230515889208,0.2726812603191575,1.0337253596408653,-0.6547517093196348,0.03897647688355425,-0.5874939518170191,8
-1.9128046223546822,-2.6967028269147484,0.9373833596441916,-0.31261415015956756,1.0888986096839226,-0.2408825689585329,-1.1688534545865175,-1.4187693829964014,-0.36520975979680803,-0.6773235115574523,-0.790955075771212,-0.03262492903771779,-0.2811448474761487,-0.576342826391968,-0.5328224662339134,-1.945385857479929,0.24091417251989294,0.40542690057824043,0.4690809447745364,-0.22985205314667562,0.14857327557620403,0.16768589196578237,0.46698774135187704,-1.1610144150142976,0.07336115053031309,-0.5820285780825183,0.5216653404697996,-0.4061201396563515,0.20865050688724315,8
1.3197817064139923,4.939627594935256,1.9856595517063782,0.06405235205903337,-1.364634591055992,-0.1977547866351391,1.0644231472939343,0.5193152189559008,2.4272376118637613,1.0928707778043214,1.2866910397925337,-0.3084008164191172,-0.43931520449531064,1.2220615470222982,1.2571249949497576,-0.9784777955782847,-1.0107595422086664,0.04077919536709847,0.2672090846046478,0.7238450176557387,0.31079383984081344,0.05455470912793775,-0.01877650889865354,0.2105295233248876,0.5652845246411136,-0.22354586615012317,0.23250369924803102,0.7817530827242809,0.3271594341901425,8
2.657748119691048,-1.5370525356053697,0.9054223345461434,-0.20437317258714985,0.24462952736718885,0.036625273954753367,-0.10954423247855086,-0.4462110007714088,0.5276203163382615,0.11987640915412115,0.08993973993685601,-0.1544651048695118,-0.7112457872372091,0.9863852194530224,0.14673701860398833,-1.8799422572806406,0.045415143366559024,0.2221457314811698,0.23649483261812515,-0.1912528524506024,-0.5434584077957549,-0.1571567154196195,0.5853337884665925,-0.7525760145445657,0.1742762298410182,0.35389718659165176,-0.5195806391328407,-1.0112548249861868,-1.1817478480593304,8
-0.23792519811474386,-1.7334595282152931,-1.6387319189932308,-0.5201929419346905,-0.10648743449947329,0.3134664257251351,-0.34513495899401947,-1.2402616309957053,0.451400124973426,-0.30621408582605514,0.12965347296008042,-0.15981730119750923,-0.38334652501585376,-0.3283697347478047,0.42203335682622867,-1.2462112318549003,0.6055139859790035,0.2862977899043158,-0.5122458260320778,-0.2196661127500832,0.31484807900096023,-0.25660139354970124,0.11778981798214867,-1.466868684448231,-0.9713149529384952,-0.7254868992525068,0.8085326992703651,-0.3815398363890201,0.0926029355376177,8
4.405310898372678,-1.0409717237616842,0.4729396796969201,0.09839244893044596,-0.8558486770083256,0.3148194421642249,0.8367907571754188,-1.4950294437093254,0.89554850659677,0.09232775455081857,-0.6658209680828227,-0.4518145966920773,0.7410813499807186,0.31863368065540454,-0.6247185605060322,-0.8025373751749967,0.1232588062896597,0.41455707988201157,0.42218968406557,0.716590832603962,-1.333226115474909,0.3428551895927943,0.3828938284475524,0.4259847680397618,0.3349800317936472,-0.040177936829915495,0.18184154163709682,-0.03483212421776468,0.474580611395367,8
3.503188371104616,-0.8247072146682928,0.4453591806971893,0.25338068035359107,-1.253818382157889,-0.30740312354273563,0.028600210121272233,-1.2257111286743847,-0.7424727545662739,0.3193211447948057,-0.4325613191227984,0.05279479596077222,0.9475941996243317,-0.15580364286290074,0.1491861302247141,0.055560153978935656,0.8798385465036845,0.5019465849674859,0.3624710574263566,0.9243754402554939,-0.435723211927141,0.5422163432288452,0.9665263906516424,-0.02745814843073076,0.3519481492712631,0.11141764473238798,0.23524295034821052,-0.6885632152405922,0.013617001396090149,8
-0.05137266752227125,-0.9206192915789901,1.5429670999976561,-0.12376406540181484,-0.8898108040273149,-0.5034245756480238,0.36866222939173315,-1.395312734658695,-0.11317582868010176,-1.0271012538142437,-1.4783807467647176,-0.5791392834036883,0.9650172556031985,-0.4220947872049794,-0.7073927534073681,-0.3779323595493928,0.36226640663018184,0.315903345181122,1.966687331881106,0.8419769285051537,-0.7497694757248502,0.14472314625260727,0.294210110754423,0.4391706779853244,0.6890453509286563,-0.10633524091740362,0.03873223997355797,-0.4805879061601789,0.3090243368771943,8
-1.9267262119630018,-1.4835233716123133,0.5798197965717689,-0.7357575470458849,0.10117981988082898,-0.024993729423882095,-0.7387774169796952,-0.9310221264798056,0.7265501862584023,-1.806349123598344,-1.4361187170703824,-0.45082829244420614,-0.789681362051969,-1.497029099754266,0.23100238635244508,0.11541355659042819,-1.306815350186207,-1.3792396083986271,-0.6581666655008229,0.6019614498577253,1.0746878652278835,-0.5795815123280033,-0.974290035744296,0.5446385515752076,-0.18329141912488783,0.04537871690748516,-0.03309426050181829,-0.4321817544853761,-0.596367528473456,8
-6.195660915696753,-2.798643759576482,0.19463752765541562,-0.8462297020906003,0.40000641406913423,-0.26233724983440687,-0.5136723893397812,-0.609806737137341,0.9572903694281866,-1.464818369025423,-0.9837282580632137,0.09818207508997066,-1.6867331328715058,-1.4728957559762048,-0.017930663429888822,0.08652942825419728,-1.1682024689387926,-1.0048724869356236,-0.7249109174634737,0.2884642128345439,0.4455937863484725,-0.5135498855737869,-0.8807731032918457,-0.5964978731988848,0.17070269338081703,-0.3871368838545734,-0.521415996585026,0.7315640650132484,-0.205587572978947,8
-1.0615132706451658,-0.017144725611246314,2.274854441111442,-0.55706455943858,-1.0016482657939405,-0.7382803354087504,-0.7907575779821012,-0.1066850655204318,0.6292644654371199,-0.868846474264863,-1.1124586957362195,0.5397076243427128,-0.6126023032494562,-1.8716032729924599,-0.11110935718515819,0.06369358735407067,-2.0200101666710966,-0.14799779307672087,-1.2058572299717039,0.6126918127025041,0.7677311262071806,-0.040051902459894796,-0.8963312654622694,0.09591859629663729,0.7467065320892328,0.637230859096119,-0.6232210976764341,0.41301636229624356,1.3605329714189531,8
-1.5621968949217362,1.7911051761622894,1.9502975456786997,-0.5653755363361194,-1.8915171793179961,-0.4675318302398717,-0.02534357724976724,-1.2238297705708518,1.1163781778837807,-0.6186457626350699,-1.872664516810822,1.3903777730657123,0.3644091099582848,-1.0660649422809132,-0.6442232405380779,1.8203796531984193,-1.1844356241833702,0.017156491432692177,-0.1850522542818005,0.168598848202736,1.0114852359976771,0.3306194662446698,1.536188579489589,-0.2275892515047132,0.11501546397049103,0.4521523949426828,1.4805832205033616,0.6888891357937823,0.14628176012539396,8
5.547079761631798,1.02193234393982,1.1412626491414766,0.30972877367904067,0.8445600334079041,0.37245832325968015,1.1524768814913842,-1.1183696264153342,0.8222876900860063,0.48034218199835066,-0.6045481347265721,0.7853195145823413,-0.7201781699311769,0.8055663147090167,-0.39700436430617914,0.39122521847010583,0.06395036294220759,0.12024826403606705,0.6904972365062079,0.3805226971303005,-0.6455326084681046,0.36006950722990455,1.1846680919325032,-0.793063886594243,-0.7293653719113148,0.07643496623922401,0.715451175400609,0.379194767232331,0.1823948643637591,8
4.424476873368434,1.9837322473454693,0.6379960622604309,0.13340684614177378,1.7274903565842554,0.36097471958313815,3.2626205283334984,-0.2091390493598827,0.6718517747632724,0.4640833641982138,-0.5452666684564013,1.1065800832881925,-0.3045614047870182,0.33377533027419465,-0.20514230803002992,0.9279087287597395,-0.4437614346972637,0.9710510594084969,0.6319017073310403,0.31300909550710565,0.04323044349949168,-0.3016431787426941,0.2041293830125615,-0.30438988881384266,-0.06726675873588653,0.565966385497484,1.5623282533935088,-0.2933460389924343,-0.021365059606789576,8
-1.5238560233301293,-2.9905952657496457,2.0043224289254753,0.6773692479472347,0.32244101812491677,-0.8265058933201678,1.7239141548632992,0.195341952408875,-0.18478160021689985,-0.10250594879362931,-0.5682661776608394,1.229335895586811,-0.12427115919472813,-0.8635855416174517,-0.7771857654745078,0.5773946677669174,0.9027262558412191,0.6386890536354236,0.3240787676428823,1.0287359628286437,1.1767123735308227,0.46589739498332255,-0.3298712536960151,0.5129733367170436,-0.2763020048562942,0.02545808980746194,0.30451984399025966,0.3303001333780712,0.32875533894035086,8
-1.6204615555057713,-2.9345030507455547,0.4866134656502272,-0.04079606324971212,0.8037884504992547,-0.09556138968761775,1.9254609567873842,-0.33040302091785856,0.2605449219707595,-0.6811885413744871,-0.23383202203370554,1.4264134610875234,0.5229957342780748,-1.5571378030888627,0.08032930515445197,1.0807143891477293,0.9137045459891665,1.1974382724334418,-0.005952016539826239,0.4080573148571617,0.7061953247202722,-0.06754104597119105,-0.13836209896046378,0.2614504804735567,-0.3556399378546354,-0.053987333014380905,0.18059638666097066,-0.3487591207911338,-0.5080390659093722,8
-1.7144618441605204,-1.8757570615255892,0.09977831653781803,-0.16157443059678794,0.08153552106916617,-0.40287750833031805,2.4875837667434317,0.382037945322368,-0.19872091129076708,0.4558746270661604,0.024264628860986858,0.5663197739585295,0.9902308028168001,-1.0845687687656047,0.5000230953979138,1.3545065966611973,-0.2897373332122922,0.8532896459040764,1.342712657016282,0.06218428938062517,0.6866663909267068,-0.08605403982641867,-1.6548441722208018,-0.44177504113459526,0.6765786976827336,-0.20511815433365108,1.121430079334564,-1.220977374579997,-0.23946363438950752,8
-4.34629313057401,2.929809423765329,2.359259525087881,-0.629458687418498,-0.8444955709635984,-0.9675428283126463,0.9712422924428911,-0.5288636259290204,-0.18326033267999256,-0.7751750581180017,-1.5666521031139384,-0.053443240170329885,-0.25388007657893086,0.3060114143805813,0.442826676599966,-0.4170309012668661,-0.8626620025323146,0.9056462462686444,1.161806064820967,0.09720624472838596,-0.29760381971429184,-0.9905840125519388,0.6591954459721797,-0.20689893945168042,0.4272241739223613,1.5834773643682154,-0.9075701131531544,1.1921396982865795,0.5828859273753253,8
-7.175182007769407,10.618128317619831,5.9801064594977404,-0.016964918259313434,1.9015502135436326,1.3568097071723624,2.673494409062341,-1.6548463246718725,-1.650844095803842,-1.4299309030101908,-0.993576281407066,-0.0004373725246873589,2.4010419060481025,1.6908551816027315,1.609006620355404,-2.058232378965314,0.9130871969078987,0.46772211561654686,-1.1025577459567062,2.2299260283175255,-0.7598899984284148,-0.5823521793054396,-0.28385611983217895,-0.6980670418969908,-0.8632350653894533,-1.7043829203682301,0.2051400807552979,0.9541172910082268,-0.770158281876328,8
-9.231850975301446,7.755618044535454,2.080705469032185,-0.2906447038617974,-0.5463240084826949,0.2008787890348583,-2.317069149666126,-0.6539454855151408,-1.148330429224337,0.6077921686294288,1.0093251954615534,1.4156701123191395,-0.4500216336422823,2.2785787613744537,1.658031296570395,0.4929147841929261,0.9764563438765297,0.27940393468948194,-0.7849893890527874,0.9558253604641699,-0.012975449781929185,0.14728790165560388,-0.5336538280842426,-1.3087247186197306,0.26571502285491133,-0.09729503304600837,-0.544626711275475,-0.8478210671218974,-0.5822186079068058,8
-7.405188936256362,5.49390031199829,4.798437525347669,0.36731257403259854,2.5885756369165356,0.29560910013931885,-0.9781504408773868,0.8972614197742247,-0.5505923164788681,-0.8746678878935878,0.556079129350392,2.8249744939255796,0.40480997717867945,0.6750945946184433,2.574946963702237,0.23515114756020866,0.9941766700018589,0.13694560932264668,-0.15170941490336606,0.3757704549855063,0.22540817716350445,0.82404132378917,-0.8742765763057211,-0.7444237411786201,1.0312322295908587,0.525666484297296,-0.24457868638988883,-0.9489726019989189,0.3539395664726295,8
-1.5812096151757156,-3.0206003905947556,0.18223723313438214,-0.6322990145792753,0.24980687390778566,0.2387385704063955,0.5289520437310308,-2.253769193348704,1.1949086165344294,-1.7737223499474408,-0.7460005731156066,-0.8673799267387249,-0.08082914999992051,-0.3992963401920524,0.4953029417147171,-1.8749777949103053,0.5154314159272759,-0.13060471206534444,1.0446986940653007,1.0915739022945137,0.12871537898203717,-1.008556669954884,-0.7379982029435868,-0.1631869380368826,0.8172584867939388,-0.39142156625545893,-0.9615927367252121,-0.4442287260402515,-1.2738638548568448,8
-1.903000339087827,-2.7940359273083533,-1.8812629147718938,-0.26244215459818193,1.0399370983987415,0.44788421447437693,0.9373370377461712,-1.3602239971196504,-0.33483615956862123,0.6759918203561543,0.7197641008300253,-0.6904189045787185,-1.7056864212017735,0.5319239411535338,1.674167776601864,-0.33182445291760804,0.45425880193569246,0.6086357399449511,0.060255919139423735,-0.28304895013778714,1.2502106108759374,0.16750908691983382,0.8808849757035511,-0.4526846918829576,-0.7959133771577219,-1.6836119046900073,-0.33649276202369344,0.41457324871804385,0.2811371701488721,8
-0.764780601752816,-2.8886349327748984,0.36389248604601543,-0.15532096798032533,0.7642037755793671,0.7434546626284849,0.10417307335934141,-1.2868221036294656,1.6832057241877363,0.19040057665113935,0.6934603300784009,-0.5115110191570852,-1.8903778209843232,0.6328890955125218,1.8392057486783575,-0.7223233584117896,-0.48008770876870843,0.17078650073944773,0.4502007622941207,-0.2977762208622228,0.46791234437138063,0.6055019081877228,0.3730896064903581,-0.44960438101118894,0.16259974265764068,-0.8379199024803352,0.0015163441625904476,-0.47845844851415514,-0.8006290993590709,8
1.9868668124508524,-1.6865212933600882,-0.9232594575354409,-0.39764123966809894,-0.8748669195526906,0.2792386708751116,0.3638477648924059,-1.14913923563192,-0.3243334355766178,0.38330373430620773,0.5136468258918279,-0.9906844083033306,-0.004259802037739863,0.3597108221411415,1.343181512488642,-0.5331099243892414,0.1306623274742529,0.2965725941934953,-0.44917852282823356,0.3617066850196162,0.9565925088190728,-1.175733459572964,-0.3033442822747887,-0.3389619078846233,0.038571016399165825,-0.5357131902790278,-0.3487082079360577,0.01808720109058161,-0.6219687617990535,8
-2.137874422605909,3.7136465334720663,4.619810463166321,-0.05691003448450814,-1.2841298224658166,-1.0413171248569717,-1.6477956709867823,-0.44190371158389985,-1.0836508610556175,-0.33137266477659616,-1.7589014118185209,0.7494207600352157,-0.5798760657690843,0.5866579283841348,0.10157392123406471,-0.3108366592413377,-0.32812517434070204,-0.047076768581950375,0.7195613962788856,-0.7907305435935564,0.6385541312667266,-0.32536267618704184,-0.014439614609738333,-0.27810779058875157,1.344606613160191,0.3517299064090503,0.1946458131014475,0.04744483443895899,0.24391863019819804,8
-7.412871488723241,6.412844397610456,3.4132519765874654,-0.6658638225679127,-0.9183994380750357,0.27940373163092197,-1.1621274647387903,-1.715448492738087,-0.8433921861141505,-0.2453774216426379,-1.846902845894633,1.770089200986588,-0.08073019869450436,1.013019474348341,0.06300404280976478,-0.5927290830198929,-0.7104590112555288,1.1186589665454603,-0.22469783647711825,0.6034308616603336,-0.2339179899105045,-0.17650979975219594,0.32213123270216837,-0.14393690914325546,0.290348406235755,-0.9598477174405685,0.01298805068949205,0.4449157736451145,0.15307523939925233,8
-4.424271689977196,5.919381061841654,2.9139775152158283,-0.5212028082412673,-1.532364596269676,-0.23231487819121152,-0.987628640115257,-1.0824494752702125,0.03315411477188727,-0.42648308226929155,-1.4448679380217928,0.3825883840195368,-0.31745817745093624,1.0925810346037097,0.26369254414176424,-0.3660602969437762,-0.29899429427773105,0.33910803833768755,-0.06703747209219454,-0.1702304803831764,0.057625747868947155,-0.5081315442354468,-0.20025632868595036,-0.07730551579517658,1.3227656866806148,-0.31337413507570594,-0.04834355230443983,0.35960186033560687,-0.6847874579197468,8
1.0680096326587654,-0.6444474200576713,0.9389627046250395,2.732067602831994,0.7712501391856192,-0.5999115518214593,-2.6635331229072827,0.2863299972780036,-2.414613460776251,0.6606878721777657,1.0124538310084739,0.728513295555622,-1.3141224069793005,-0.19689880899129752,0.19434720984350248,-0.8057754117448123,-0.8278159234747376,-0.365099233609055,-0.7372657904386759,-0.20411851541127468,0.28649394662710675,0.29926362691048664,-0.4959114426951866,0.9715889743961926,1.2727290640739766,-1.4772588393431383,-0.2803768934960834,-0.6790297228647465,1.4522624254866787,8
1.5324611198113278,0.9836455610402647,0.29730642598900264,0.006054464494082839,-0.30904350320574536,-0.9206741863709016,-2.110771877172904,1.1530359742237954,-0.26567421225421767,0.04565070850686508,-0.2839111027248872,0.8430498681368503,-2.0518935055757406,-0.8942625869437061,-0.4301553682498869,0.030693885677887986,-0.6641965633711798,-0.2572394547447167,-0.7632480894180044,-0.5612915359416288,0.343910208290108,0.04021270319549069,0.302036666204077,-0.0177413361525302,1.772016575068535,-0.4643091995643591,-0.1091983471044205,-0.25412938069213964,1.1245245946639548,8
5.657733833092014,2.2129804391471497,1.0066698173840372,-0.8038771606127255,2.648838271449871,0.10942941117081856,2.584444586671454,-1.068841566315033,2.3161915948411864,0.9528808745431483,-0.43543230838937563,-0.03912903136536875,-0.2823893780842965,-0.6745274113531193,-0.003185727615923146,-1.2843012942766634,-0.9883829455691691,1.0941191404284658,0.08826260734099216,-1.886468761055592,0.3409856806012045,0.5896654617915864,-1.6500004006259734,0.4027457143718598,0.29406226007577185,-0.2711477688415395,-0.5578736617228476,0.7672484301304132,-1.490902651302016,8
6.875385045204047,3.725853552201293,1.88756010057484,-0.6723825843854127,3.346691262594957,0.6514033038837505,4.190720088393034,-0.05372353231209522,0.9578055650472933,1.3505315970160023,-0.3674846194354115,-0.90429374117091,0.8873706525931456,-0.8121858584799232,-0.07136140203453817,-1.8819617511561393,-0.8484910470418532,-0.047304740482399216,-0.4582665916703651,-2.331325940152859,1.2139545771747722,0.4730640374912041,-0.6832142686454036,-0.4890633170716107,1.140420929671355,-0.5675082802776387,-0.04884617438599562,0.5192639975253175,-0.38728404294640595,8
2.8393616582139405,-0.505428709795964,-0.7940671706910054,-1.0230642148427156,0.7164294496260334,0.9100332450521229,0.5299205775283979,-1.4233946753005668,1.6987337331288421,1.0506217665091127,-0.15263412696160433,-0.47589078640335053,-0.9069598466980945,1.1102430150897762,0.5356757944835452,-1.3089008135171454,-1.1908882502241236,0.15237870579375987,-0.8865327083326903,-1.8258340273213245,0.08762413480409746,1.247395445917841,-1.4187246698314158,-0.15191824002666482,-0.12535355225892544,-0.19701746923127164,-0.28044827031834413,0.22111327338161357,-0.3780064243906279,8
-3.713972523930778,-3.1747364215854286,-0.48836258922089737,-0.40858214367864976,-0.6834231350526778,0.16152508085459052,-0.24825801164123584,-0.02014933301535574,-0.17273314697535977,0.13142279611184665,-1.0197890997323467,0.210858090103895,0.8698718533184989,0.160624246774998,-1.0311710130745078,1.1166501117071046,-0.8456750641340189,-0.27478785389577143,0.31441310085894997,-0.547585876875234,0.311595270876635,-0.06172853487073931,-1.0226908243453627,-0.5040071755075363,1.0678630049096496,-0.8327608363053279,-0.018634657957030298,0.5844471091058447,0.04847831881678739,8
-5.878605195046151,-2.5752300240965353,0.6956480757491866,-0.25469742354914787,-0.02999894657756054,0.048973160355536345,-0.5567466009077536,0.02356595595756481,-1.074017449525989,0.6862894764722425,-1.2147783552820826,-0.11169528788741884,0.9101206808158162,0.29567733281208347,-1.3583447166055544,1.7479277704742253,-1.4190483753419876,-0.0645493126465516,0.021249856195473867,-1.3964034197237065,1.0177487638844231,0.21104156337065239,-0.7693395279863692,-0.24857106171414983,0.6399578352517367,-1.1294649435685715,0.2507922599687432,0.3192881104907068,0.19083614985039607,8
-7.185248744798154,-3.507569445767932,1.0611426320344544,-0.23968373414470248,-0.43326513733545435,0.33849233015873315,-0.21316051811625308,0.024441718056612452,-0.3024841817353741,-0.032005851691075525,-0.9001276903727286,-0.01938165672212286,0.02380808246503303,0.5162502383118543,-0.11028207347653922,2.1207416367076415,-0.44277037199157554,-0.46709107674784706,-0.6435461911729171,-1.1814699050544109,0.838419665978943,0.11626250881060632,-0.19894424519773596,-0.4941306327977858,0.7053419261383211,-0.18000874024202265,0.11916099730452775,-0.08224168464476499,-0.5258307224605353,8
6.662295347419111,2.2702617766522786,-0.02494646611429287,0.19605638597742026,1.5847832088242575,0.4190026992122622,1.0386158009024324,0.04596403140262608,1.1189675824368182,0.21550741672888232,1.35627699118396,1.9934499666212635,0.16929559965164534,-0.47270788875848424,0.452689171056389,1.490042120179986,1.6739103546989846,-0.3453630232263379,0.4425137484555823,0.7287420153263146,1.407747560624716,-0.02717266569324764,0.8799811613093582,-0.2097838079770608,-0.09327882780289053,-0.8270420487742421,-0.32838409516796807,-0.4200542963735329,0.35263913399078456,8
3.089455113935459,1.994850943931454,2.3602492362853966,-0.1581447172803371,2.8488186987266593,0.5665844773504793,1.1784476607898084,-0.22207230452582158,0.6757640281884777,-0.14380954784128192,0.2810571111401631,1.3254841783531377,0.1949613212826773,-1.3756552555515376,-0.5522034312661903,0.6184322724641371,1.226912147237772,-0.28721238641923075,1.616963175096894,-0.5266740751581577,0.8992054090751437,1.3122166540027038,0.02121534288689737,-1.0462766548385858,0.741429661440819,-0.9891399089777927,-0.08289448145525011,-0.7726277740775609,-0.24506300328517952,8
3.4257850744517997,0.2159523832993283,0.9320636791225207,0.47736960557388547,0.3892880563560729,-0.6515102556023297,0.36676133417893036,0.9743222866516488,-1.8923863849615687,0.8611323421732535,-0.192627796757743,2.417511186975348,0.5744302208265061,-0.5864598983185366,-0.5659308954140134,1.6239958407486776,1.1729710266897808,0.9927337820823546,0.2345011405604637,0.44805012588146614,1.4437035581034507,0.820390702169634,-0.6051846396234473,-0.30615320568610566,-0.08747058885607412,-0.09174600469186851,-0.09098000135126315,0.13592669705548716,0.7144843995828304,8
3.8537494289446226,0.2941794368790212,1.6019570450272613,1.124430097659141,1.6329985032054093,0.9675321207347458,-1.2702069232202706,0.898001072222615,1.369573153566906,-0.4755722778547835,0.5146031080271083,-1.8170145842800796,-0.41354709754970503,1.5826987757178852,0.29401650840022814,2.254363760876977,-0.9619009628912141,1.509757175164288,0.4425254712966335,1.207160040751587,0.17542347663501545,1.3199799204308984,0.13394425193700923,-0.3293407298324155,-0.3114472646759423,0.6743098111822446,0.5116992869734677,-0.5814706210349867,-0.4553627920104381,8
-4.330908685925028,-2.481719118220663,1.561827915952122,-0.29374367274719837,2.446024663901402,0.4871526517171635,1.0630731744380753,-1.00752519792627,0.2903208313603124,-1.5443518071719324,-1.1856614206821225,1.3288912556310195,-0.735579137037174,-1.0932894705795553,0.5798106236673309,2.2435669820493978,1.1939913578866577,1.4731309114852398,-1.1984203690508084,-1.2063319944602062,0.996560210820073,0.625195463277808,0.6524531920462024,0.35320420598383623,-0.24619200078982714,-0.0038808200773353114,0.5703867623702679,-0.6417175573675911,-0.8286658849725174,8
-4.122126025690791,-2.1709029148637393,0.5452387639069693,0.32794430708633304,1.5579847079454143,0.5691160738608053,-1.4134937014027693,0.2159491954441116,1.905942110468128,-3.061759397674407,-0.9475949411721547,-2.340458158376799,0.1965086215825505,-0.5911036559892843,-0.7451913838402454,2.104743679603424,-0.5797897369437894,1.7630158710525714,0.6967200995473456,0.7909891367323664,0.6324724951590907,1.170105966201677,-0.006966317975329687,-0.6873543211946502,0.7326730749167677,0.1743585679448217,0.02971886122015556,-0.18105679049664664,0.00873616034186815,8
1.2590183301096738,-1.1857988833941049,1.833139758076233,-0.15432266007905332,0.2664391325588043,0.7218831301148274,-0.546412558129815,-0.611867660071317,2.0252717870152717,-1.715011023425457,-1.100819113327746,-0.6870845971745139,0.8718013110170888,0.03967696775477348,-0.5479977289388952,0.8985377098038967,-0.5289838001795129,-0.03789965208235728,-0.3108153711199252,-0.06857040066497651,0.08887558159884489,0.2970835418883478,-0.7603602136459375,0.9455667581089974,0.8144245533174719,0.6995717586401347,0.5245875761052828,-0.18076984313475025,0.021836652241635193,8
6.200930963556442,-0.374469483126996,0.09166039199432459,0.0362294752356337,-0.525552675088933,0.5544970264905468,0.22195930396624464,-0.7428115495069098,1.5461579092333013,0.8435218170001403,0.5665502371459111,0.2238246712467879,-0.4718722432542051,1.2454850622539813,-0.244196097868384,0.5761233602821224,0.11696417564282578,0.39369410989702125,-0.34704758633951466,0.5924519090711213,-0.5852551435707616,-0.15166381087946917,0.6131150486818701,-0.07020880763112894,0.9899882032248193,0.4450533989993899,-0.3643629197244981,-0.46720456161905305,0.0978090901574429,8
3.780055149955478,1.2827617311310584,0.15335683757979687,0.5834435080417327,-0.3120062091522998,1.1097525760844866,0.009969474505751974,-0.9263587441187391,-0.732861525187972,-1.0378730547554422,-0.18068332574289775,1.1398087128977235,0.36831430758287914,-0.15026249670773087,-1.2404983028566727,-0.010211365372285014,1.198695047137414,-0.8161870224759292,-0.08049864319800686,0.7522191990078353,0.8317785246588658,0.46402428652041317,1.3712903269750079,-1.057090960861045,0.6729337069711191,0.4663598408383697,0.43121019556289536,-0.7639032777993044,1.0936316650668663,8
-3.1582214406676865,1.5161838156996787,-4.653393706672067,25.770203720216394,-3.333390654765714,1.082994226246195,1.143559124633861,-3.979860939853874,-2.144384153173987,1.6936001334916755,1.1066200067839824,4.248986572428813,1.1875700030320642,0.6729238955071061,-1.3812436023345478,-1.0284584499880147,-2.3959451838188763,-1.3820497448115419,-1.7053596284035268,-0.41399009297282596,0.3380470810506935,2.00929348978046,-1.5465897510361213,0.7125386272620992,0.3102612817958913,0.07113990049487436,0.920391541390702,-0.5026609678683875,-0.23429547856868435,8
3.1731841520806197,-2.1182582557777794,1.3716864921327978,0.03772403019379763,1.2201132131963262,0.7481754993794636,-0.9627401850318279,-0.8257460810399924,1.0685080636120898,-1.546799741969964,-0.5501713200835076,2.319291299610986,0.5135992094717471,-0.8708404523403154,-0.5418464699732253,0.5713552163079878,0.7159536707033486,0.4836401618509311,0.2951631418185409,0.9094318130555914,-0.6765901375722738,0.18651382171855083,1.3629727049459213,-0.27726344735099845,-0.036916325609755905,0.0688352436404452,-0.7703610434937842,0.8560124446525648,-0.7229173591885163,8
6.72099632345745,0.491054113354019,0.4651219385130594,-0.12591348475305927,-1.9335451789033777,-0.8383769676024775,-0.7451826605369065,-0.9493633719340909,-1.6227054308664912,1.2840336538144304,-1.184173530375377,-0.32508741097716753,0.7651039570067356,-0.7850389446652194,1.0369825334992686,-0.887330571656768,-0.24550699796072442,0.8882621615432817,1.0926057869798627,-0.8688207357098138,-0.11371347441811736,0.8437861781361257,-1.317537601568649,-1.666357886268238,-0.3178285867425508,0.32107877169717214,0.05891678334028077,0.22239750315519963,-0.8302394140216293,8
3.7837035072363605,0.5203309720052292,0.29450025388349776,-0.3950989840794659,-1.0336137106912269,-0.7111537550005466,-0.7205441115970623,-0.9598181252520572,-1.118131055010533,0.930414504411604,-0.6122782123320742,-1.7005414730258779,1.1147186691189452,-0.4909838577968726,1.1328848046321065,-0.35389606352242814,-0.4617262310756142,0.1498800967815164,1.322016651778076,-1.4358004611335922,0.31091090119387144,-0.16533862535324179,-0.87728851190397,-0.5829172440663707,-0.7010126887918577,0.058858720208111545,-0.4248210455256897,0.6149131314426675,-0.08215081709851133,8
1.6902690651080055,-1.1178623534421313,-0.0044451458955165465,0.30793355003635337,0.23804085527492738,0.12408797791534981,-0.8846903913859098,-0.33097409423119745,-2.2951443910954605,-0.3909999896060144,-1.182367978272214,-2.178765642009066,1.0857905313391956,0.5605438413400944,1.1302524859283751,-0.1358429649668802,-0.2802740843492092,0.33640802953664606,0.38433764183967195,-0.4769272013874806,1.3569832834905586,0.8324617287164108,0.6270015873307773,0.8605820092536962,-1.4952645110850284,0.3792693533865661,-0.7256226602020219,-0.1265782668019328,0.38012647366719005,8
2.800045564686666,-0.7805832268431689,0.04028328311931683,0.017171453072250265,0.004177083853644379,0.03795453296038237,0.8490369525209741,-0.9417200990504276,-1.9869541556857906,0.10249412912387572,-1.4713265618944276,-2.1140355745017163,0.4947640039678469,0.7740504916939664,1.0806460538821288,-1.121873735026355,-0.48335997018804727,-0.21018566978615041,1.3190150504408769,-1.2533603542782161,0.38090091500536444,0.18600316583810056,0.6793566621065312,-0.3708351819918396,-0.9444745999348172,-0.5548292187197101,-0.24541670198194254,-0.4476575476167908,0.4639721030011558,8
3.0140713484473913,-0.02925565063080056,-0.016662755033536685,0.31168318259132466,1.0498141520157553,0.8420767628906147,-4.054128134613529,-0.41007321866241603,1.4313673878799815,-2.058543739810034,-0.20611304556537965,-1.540249108399819,-0.3261470295674257,-0.28272641613002775,0.6061403124852912,0.1054445275258693,-0.643198837501888,1.2344367596450423,1.8495776928822025,0.02788915983930464,0.5400828097179683,2.391375658823116,0.11664533748950191,0.06440022937700898,-0.16098207064067183,-0.815261753558073,-1.5589715124593264,-0.11714142777202499,-1.3864885953515211,8
-1.078981787172996,-2.5921363398238833,0.1564866745339171,-0.6076412524556181,1.0831954682392972,1.4636116505082684,-2.2307955891476037,-1.4246016742697776,-0.4158261222803747,-0.8147774504421904,-1.1583789212984672,-0.7818563830675137,0.6474793438898482,-0.11252678747404488,0.292738312753925,-0.1926617225395357,-1.2728040155728193,0.3278135051468893,-0.2169601469562156,-1.1891667749747887,1.0036110665257585,0.33581886966118524,0.2105968749711859,0.8840394752946853,-0.727905235734096,-0.3936398169482033,-0.25993507485940354,-0.6172463152451977,-0.8358537431161244,8
-2.1308365624873993,-2.3899826663516217,-3.4126560033570414,-0.6770764699088543,0.6429000380353791,1.6814263928625666,-1.970351852028004,-1.0532844813589868,-0.14322445716026774,-1.2962196635124843,-0.5069413283577946,-1.3090277139136772,0.6686527259474664,0.7322003179307836,0.4907717686555184,0.24489100388587023,-1.6790170519455514,0.8953144684329961,0.20941828711466395,0.24473972473281394,0.9946681201700731,0.019244916419378293,-0.26392683800130307,1.1349570597205967,-0.8463054802419484,-0.45456574288097906,-0.3410457128592598,-0.5332094701822139,-0.7893052753010877,8
-2.4414328074549503,-3.9622303953546116,-0.219224929495216,0.08201099401037804,0.5809107596988449,0.936455712877871,-1.592447118302602,-0.7341442425039758,1.0759463604380681,-0.9996842067383725,0.9415194011876895,-0.08753679447396082,0.11953610941152956,-0.4805760274036295,2.401226553876641,-0.11023064883352103,-0.26509945820490527,0.21705537198041333,-0.3628936891249617,0.35282844824548787,0.7602574044750549,-0.05390126109521013,0.12544146135365755,0.14812921537855725,0.3489631507669804,-0.7627022363522338,-0.15667624669259209,0.579589916021824,0.978562404795078,8
11.370673978683076,2.6610360485572055,0.6395499835512406,-0.2584633056996471,-1.2905604477715258,0.8888424845665209,1.1014860008978893,-0.16634214806403053,2.835877248378729,1.3278835085648546,0.3084754084097483,0.2091958146096088,0.14922760863142218,0.5105996271994677,-1.005889423996374,0.40630093750550156,-0.25398824811771165,0.09431133931518665,-0.3630045424044568,-0.9303253180587749,-0.7464039901869445,-0.8251923012095058,-0.6586450821731876,-0.2838613408809097,0.20522995602454694,-0.1581274006974013,0.2606629565630711,0.35894908759311095,0.11793193997800486,8
5.6694546456794,0.6949585375892838,0.09518163432341369,-0.06258586104969102,1.3728994955623115,0.8846032689225031,2.601989222408298,-0.38544128054226623,1.4311386267432882,0.19289364537842166,0.4448033190005731,0.6131025104382474,0.7318566783253622,1.1484747440764442,0.3868680033642391,0.4461911005339276,-0.3059666964234621,-1.83116287866303,0.34614927962624137,0.7221503806320978,0.49141440581811086,0.0400278523262927,1.722319179890989,-0.2735519752889698,-0.26734872059883286,-0.20349589814513688,-0.42917911867371206,0.34089870922383053,0.4850907883442334,8
4.545326910316715,-1.5025993049812458,0.9255658068896679,0.016970592616680595,-1.125499645420081,0.6608596554811279,-1.1042124485481475,-1.6735732753878925,1.5108231963770449,-0.3889418262062364,0.07843441081426646,0.6448926242499349,1.209471162389605,-0.25205605188195745,1.018112203826393,0.8981278900381758,0.46751136385975706,-0.7974991773818978,-1.066589986651485,0.2262113156625519,-0.008087759901527151,1.0213480493038969,0.875267972299465,0.28853376608401515,-0.3537519083367857,0.38859363575302525,-0.40533225616135565,-0.11531400562073069,0.19230365355042112,8
2.0926140643614963,-1.326324667313736,0.34645669399162743,-0.09514993478233932,-0.31278321095641193,0.5191263562975746,1.072113467822738,-1.2397759000412547,2.755007471124746,0.3192086319864258,0.9990205652280051,-0.08790216344595038,-0.9922060614196503,0.9531671496684739,0.5818973742924431,1.1783792403489701,0.26688435017608203,-0.1832822771435581,-1.0303574343743813,0.4154817881536866,0.23496104440872947,0.02116864550440157,0.37390358242580674,-0.07919698745796531,-0.2131718163179396,0.5282684941137006,-0.3681602649026563,-0.08995653611049034,0.5116941528393274,8
5.424799460782677,-0.7097766642239702,0.9507482112874766,0.2698050253310622,-0.1783707127602353,-0.2214655408729755,1.122635807089337,0.46131648060880254,0.22664650506709433,1.4602860443840662,0.7673260356919485,-0.05526743006552915,-0.8473481691045884,1.1237687044756892,0.48359955191813264,-1.0442924591602867,-0.06474815659040636,0.8085450643627952,-0.0857617116675631,0.5784091379185397,0.9216945966866289,-0.34674208546387913,-0.04516001962886903,0.2761934918630159,-0.12273646780250004,0.41423793023419997,-1.1934250697063173,-0.45307590116763374,-0.5428707550560516,8
4.4715853319556365,-1.373517831012531,0.24608704583229465,-0.05102897654500774,-0.9490980961278918,0.157735802216604,-0.6298309498101866,0.45006359360644044,0.021604395279959818,1.1875179171138004,0.41663855857906396,0.2703815221781806,0.26344748695343834,0.8492911270364402,0.03872655023234477,-1.319704100348521,-0.6743280673321562,0.7019520190316705,-1.0377599935459514,-0.22768552942313486,0.25354320118060203,0.2673963315665312,0.280565977410878,-0.4406789576903758,0.2178584827945341,0.1062642437404959,-1.0538766609164563,-0.40041538714847036,-0.21087222094001032,8
5.165012992041911,0.49768857023295987,-0.7032645826752385,0.6660298490969171,-1.9825863477701458,-0.24408191549374472,-0.549052777485468,-1.04731449496802,0.21423092903486005,0.0016591581364918061,0.1366476124988374,0.7187108054780507,0.45423727867550767,-0.3824365950890467,-0.05857575406200773,-1.314655776918379,0.07159849967090828,0.7898203320747247,-0.8802506198825104,0.640405042457547,1.1637743465774069,0.49869456963754094,0.031835349246638694,-0.11847676277701215,0.039611443968277094,0.23296791372354836,-0.9927225474361,-1.153171915657609,0.1610523562857014,8
4.322111298799227,0.13228456975184158,-0.2631676874226266,0.5195508894516667,0.1581123957540559,-0.4219226644557153,1.5628214171526267,0.4081026132590174,0.07857139113510934,0.8235413515343473,0.22998897332262697,1.1280343718844283,-0.6897431708136752,0.38760865107105014,-0.4624937443321876,-1.1766562752815308,-0.09104869621641037,1.0135451770293165,-0.08027766270931784,0.8238535330628757,1.4701926979748863,0.25845179755603515,-0.4410221079240746,0.22701095929039125,-0.13172436277393393,0.7658732905672163,-1.115060675789304,-0.2033156967163359,0.014154421477318161,8
2.170714507742625,-2.04596352098399,0.1485896752018035,-0.32575560252685903,0.44139389445939403,1.072892599940947,-1.462120499480638,-1.4019787442334826,0.6653844213234049,-1.1854204682705545,-0.7648329356265825,0.5834964737200515,0.5029453633318686,-0.057609868257276604,1.008024479473217,-1.0537849227321443,-0.6381615600573799,0.10872826358580433,-0.29262454789753306,-0.060483223393279904,-0.3837032171669961,-0.4434532499752148,-0.562551998031702,0.09281049631552435,0.6729738744476974,0.3393600950028208,0.22960596391354024,0.21332663543746402,-0.33386563095973476,8
1.8163946732467147,-2.037422391856333,0.6994034052160099,-0.45258195010627594,0.23436794733479138,0.5333243593156327,-2.20268530813563,-0.5815350629158088,-1.0314156711059774,-0.4322555853443764,-0.44503799024639784,0.794225083874978,0.33648334924412915,0.5978972906050294,1.0866622820514749,-0.5984193802691051,-0.1669309821198353,-0.2765233313363055,0.8613254819137335,-0.4380358738768063,-0.14942558715936224,-1.5360781239038792,-0.5361435654095777,0.27700563663162786,0.9901109565010517,0.21450477179482347,-0.39779472568561036,-0.2219671578076407,-1.1734656389195375,8
1.5432312001966872,-1.4964343167462437,0.7427602168446134,-0.1963395638797288,0.08493625340668295,1.3696557428896934,-1.8610022695143364,-0.4859061131823381,-1.4461974549045604,-0.1417542897899618,-0.19823878545086976,0.14973323199595776,0.45666823893243824,0.3963485682015532,1.465720446217411,-0.4235480023860737,-0.40068471858551924,-0.38147068425631664,1.0162556889174292,-0.4164120175360518,0.32219413065269714,-0.9755561131774829,-0.7522287982376202,0.8586256808317076,0.5195837872774506,-0.07851206936167415,0.16318159431696638,0.3681689791763185,-0.13588879256609154,8
0.09236609549695293,-2.470969537347597,-0.5274341396609029,0.26974508686421417,-0.805383012922029,0.35191185377920664,0.9536925387339052,-1.2652861254985177,-0.48879101929303687,0.34307670120605527,-0.3812847033882327,-0.7207026583139028,0.5760531333106019,0.5524487108652414,-0.33334906632760486,0.6944134860489438,0.2748263972135387,0.39267180546587976,-1.1729142935743575,0.6100215903685976,0.2813073627660659,0.10056711811046251,-0.4107531379834978,-0.7835181701104629,0.022663519004612838,-0.5187249525336334,0.07176003273811306,0.7485437198008477,0.29571336235077295,8
-1.1084375995100675,-2.846604467984232,-1.040859989209459,-0.3552393382097999,-0.4336864582833084,0.9024821124823448,1.3926610334893397,-1.1022238477435813,0.16249683420946673,0.5995327741317618,0.06604856366333314,-0.9335076318836079,0.6998356133353127,0.8293796237488907,0.35615539563420123,0.4462453530263438,-0.3215534531706966,0.025058803038454938,-0.646500383937303,0.18069707737271862,-0.5481486088044335,0.28692212240299103,-0.890193124351574,-0.2607474176713382,0.17659891286011914,-0.8854953931000987,0.3311395761496123,1.0028519043429902,0.6430639345682813,8
-7.4591374334110885,5.715773304889263,6.811061783765453,-4.580511664047198,-7.792008572549679,25.243316970884045,2.249602133702898,1.002074024512725,-4.683682731891767,1.0950664948987918,3.4358685888281264,-0.7817693072519479,-2.705547331226383,-5.445654933442117,-4.081902146037107,-0.8645697446176912,2.182891684709471,0.28917303961427154,-0.2819075224958815,-1.0116261563216606,0.000981595104528771,0.06800567692967342,-0.15226521648191851,-0.009602239895147057,-0.5722819689628514,2.4671115742491048,0.007487557163334948,0.4278602896035373,-0.36340165485287057,8
-1.770605998038953,-2.679777794664728,2.4410265500549175,-0.14369659749637573,-1.5911002513509056,-0.2986328071391795,0.27989488663196266,-0.028020709590551186,-0.3523525244919421,0.2623249591919179,-1.380388652150257,0.053434312493451874,1.0761335830452476,-0.10463657751213941,-0.5489823061317068,1.530549029523601,-0.6548378783257214,-0.041896410673288885,-1.2926676452961783,-1.2039493395378722,0.8630926220419004,0.2949246516386002,-0.3357343710666571,-0.4803958160708048,-0.08368470504024395,0.32068060941382154,0.24312576598948155,-0.21932700854686604,-0.04168408975166224,8
-4.8063008641576666,-2.3250080271652585,0.8116449871291974,-0.8099733355895874,-1.255986830990115,-0.23370197476391766,0.9963264949110509,-0.36476979808642845,0.515709278497132,-0.7041424604373597,-1.1262762914660949,-0.6175284036404705,1.0338369246235475,-0.17115687032202093,-0.6089435246523789,1.7490714578749444,-0.7979242511859359,-0.24766563837611844,-0.5251652943547357,-0.5941734063975199,1.1308477312853968,-0.4514323695547852,0.28628360505700434,-0.702232735924473,0.9063978456794094,0.34588922755429363,-0.616731346934742,-0.9698814534800069,-1.2925472112199095,8
3.045495941203318,3.158657779193197,3.3195903885632947,0.5675501698972403,0.25313503452877323,-0.6980297645327259,0.910309103959613,-0.32987542587838603,1.796222217603665,0.028367053661349947,-0.007368131398971613,1.5702721253663627,-1.4549429045224544,0.24037804981065533,0.46902032787016323,1.7053303125890487,1.2726893903945127,-0.3265704165163174,0.31835939518824646,0.025076648378297144,1.0217898468962325,0.9625360152908907,0.333127063967472,1.04935601267206,-0.07172200498924926,0.703023200082783,0.22990299651914498,0.6106416623635694,0.4807931785208103,8
2.341219858007171,-0.9540991566650985,0.1017992260795234,-0.5896078972458335,0.8054372620905595,1.1570214155065792,0.32555849201984094,-1.0052381740280052,2.9196461172701538,-0.6254736702751081,0.33180206142831276,0.7810579734777632,-0.26087230406202505,0.9840432571036563,-0.1682133816511278,0.7726850097084806,-0.16330778160666715,-0.8897571703018158,-0.0009271080954519482,-0.31282810906255176,-0.6447934152814319,-0.7276686882494666,-0.061211371663321336,-0.3733413863869155,0.43099021996104553,0.32097465139438186,-0.1270408326143666,-0.019904824090757806,-0.1322559883645836,8
2.8985351730154276,0.8395336458577914,-0.0702463999966716,-0.5310018869103288,-0.45592356735712164,0.7155126447216417,-0.12304778018370963,-0.8242932171240954,2.9559428525125653,0.756938249733947,0.4282463082373993,1.441401552986783,-0.600511639712773,1.364106746355552,-0.41666160439886374,0.9074157783761381,-0.7532906352266783,-1.1900132377233907,1.111570896377769,-0.009735845168028756,-0.5489251826907258,-0.5198480613349623,-1.1230941182171468,0.03707929882564913,0.7170653751360505,0.0916589886319393,0.05645901208023863,0.10799938343660788,0.20648296368787594,8
4.416722947684143,1.1204301023859886,0.8398039156349453,0.26303426680016256,1.1848844421157843,0.38664446893026855,1.9854687000764435,0.3642453893549718,-0.013311848641950457,-0.2530545909658572,-0.5249512807100392,-0.3321215852815802,1.3156508320464453,0.6579630287875361,-0.4132072380331963,0.4436225947241006,-0.41803850850587404,-1.0139580532886163,0.7660029228040844,-0.06630912801340332,0.5645112295039175,0.5066584703096549,1.162684195708001,-0.12226818380048973,-0.47457941628229966,-0.12695569598743403,0.26104225544176246,0.33808039433074444,0.6029397480046993,8
2.290956581139491,-1.713009464999626,0.21072673878399328,-0.25460019985454874,0.5060819520380159,0.4548648687808057,-0.368104665201142,-1.2993703533382794,0.5995704875190571,-1.1304877176976074,-0.25820526491324675,1.1419589191398103,1.2785818282394306,-0.9955643554678063,-0.008833975555354203,0.08638209057621003,0.6113969005131872,-0.4760260315197653,1.3989755267501167,0.8210940196457368,-0.3068574337753669,0.4953787474973625,0.8420818285920978,-0.45265654576987735,-0.2636105875371113,-0.818704651005794,-0.44645743981521185,0.19715083423629037,0.48014236609372885,8
1.1807904299216134,-2.884274073018295,0.530408845493617,0.28432352186305143,0.26427449880541304,0.5746196651423634,-1.055358867352497,-0.6489708538181094,0.14801786967207853,0.1135945384644246,-0.015412617594520117,1.197659076422281,0.5751827265434729,0.3243190474783577,-0.11987583247660331,0.28148007100935757,0.5681480009603407,-0.21605210553680756,-0.5419905879207857,0.2833266792850365,-0.59614078738237,1.4996666237957783,0.5977016899577664,-0.46022445746626384,-0.5980870650685131,-0.32353227469258644,-0.3225786766488598,0.654769690615704,0.5640815127205554,8
1.2231042952008142,-2.1234852390595873,0.35966912026695275,0.3927961983813105,-0.5813592533487537,0.15856311369101544,-0.5776098116196918,-0.748511977097247,0.8443997630028999,0.028692637417000608,0.3664411855916145,0.10648624055906536,0.4082587159203946,0.4549779103652306,-0.09010849655917717,0.34327381235514515,0.8675746069044266,-0.6191230759259462,-0.38137503326728234,1.0213711337005458,-0.01583605886694363,0.7025585710473401,-0.3471937038743492,-0.29804803978923716,0.16906802113644748,-0.08308288427561983,0.2456133252111923,0.1580228249174558,0.14858218649443736,8
6.266116409980029,1.513944792368933,0.6626221167554638,0.29422231430856755,0.25506086145162754,-0.5255273619804605,0.25628011190672995,0.7364826726966825,-0.2713185391660846,0.9833140444657046,0.43886481217673373,0.30419965776428814,-0.7866308107579032,0.23388167714828004,0.7988736629228524,-1.099595553213874,0.6102666550250784,0.6426083325345835,1.0109969912235677,-0.7485105158441907,0.04705918902241372,0.4276391230143255,-0.1934413479178301,0.03971446003640748,0.4598665211313192,-0.33427495288593667,-0.2821943595857813,1.2826563742460875,-0.1194400867967961,8
4.73246751169257,-0.4231268541541755,0.5201661973527872,0.2517693496881488,0.40473437894736186,0.07352878866434966,-1.5613188395990103,0.8791119172246383,0.1890831608214112,1.0950342201732155,0.8364355793484702,0.7519404270256653,-1.0479538218574076,1.4607962133667172,-0.5685782504198705,-1.781656323151729,-0.7033853424990554,0.4305228229149226,0.64901519029468,-0.9642669373022525,-0.3681905597856217,0.5084743663527551,-0.5543512643182893,0.050381471641826624,0.8932724090077967,-0.4238740259442427,-0.3030777800767905,0.645010085065232,0.6235028075751643,8
3.1119824557794793,0.005602619118073896,-0.34591534954981135,-0.13830061116741826,-0.8464186289633534,1.525615849487937,-0.941756822177037,0.347169953688678,-0.06444118814371601,0.7399567129263874,0.897523010990102,0.5061850665132707,-1.0636887072101455,0.7144920616860025,-0.28671843592562063,-1.5195852083853478,0.2883881688845126,0.24185515354225687,-0.47961540005644054,-0.04767789578239904,0.314312854754062,-0.07501419013179225,0.20390621928294508,0.027073802691517882,1.1205798199002377,0.3370607150806689,-0.06527846463706699,-0.07271499646427847,-0.21852423189542086,8
3.742119115502791,0.1697412101501622,-0.5824195886226318,-0.20592510447683846,-0.49188784141467085,0.22599080728066656,-1.038297585978865,-0.47755300883148033,0.312129877893287,-0.25057235522243554,-0.28027397472204607,0.32163722319689714,0.4262688826792089,-0.2696827916766581,0.33052990527161835,-1.5824963208428473,0.26325399376018727,0.6324118091441813,-0.5846315601552665,-1.0687337173757205,-0.7115865254174931,-0.2004442002471885,-0.1973344048079633,-0.5933530323004627,0.1181749830698098,-0.1511144441309702,0.3692376742933187,0.3308036746810002,1.3461326105795133,8
5.94829363659466,-0.9931674676592034,0.33512350228116655,-0.35386685710533045,-1.700248082167238,0.4276245525002372,0.5577052812094051,-1.7982958635113597,0.7347076493474851,-0.14416177577917647,-0.7016810476447679,-0.27596990720789155,1.6467870100591377,-0.6536886635476757,-0.013810602946982869,0.324563460943098,0.3394789035150531,0.5916043829935896,-1.0462671500912384,-0.04244577966262575,-0.6615088005141155,-0.24171820641342268,-0.1590852210704697,-0.6426785557413062,0.43513683871651543,0.16371523104911037,-0.08077244186677122,-0.46376939351645247,-0.4549637826566951,8
4.903831814247527,-1.2336607386846985,0.09398364194091308,0.03385798232271444,-2.258389974262285,-0.4862224715979863,0.19405205849469512,-0.6477277228149727,-2.0532781375274785,1.3639683305771027,-0.11798683304925615,-0.8810359899025737,1.8946410947506507,0.060923560108047205,1.1181346763778865,1.0750365968184852,0.5901146259704838,0.442237440736461,-0.033508347899581355,0.4450600628703923,-0.051899814733405325,0.10201166526606013,-0.3318042902054735,-0.28954432069716224,0.33248976621044357,0.6326694133494032,-0.10044577299440256,0.018692464669573146,-0.2925724779724878,8
1.278174289835257,-3.0925515733387368,0.051409162387329566,-0.26594132397426123,-0.8246215332671352,0.2959399284034894,0.7967340775204683,-0.9492257842460812,-1.8973982392694586,0.679836696095394,-0.733658601703899,-1.0455098106680223,1.393777741462799,0.6268249785129146,-0.10798256991252869,0.4017062719745535,0.4077322963694772,0.5277651555044236,-1.1538648765240294,-0.5518727055894923,-0.32486644620199756,-0.13942394177040363,-0.19755850612553696,-0.30421558657278136,0.10288055856902001,-0.4222890034473859,0.18808062592585076,-0.11310970836734695,-0.6597059403382043,8
0.031894193102403795,-2.9302872243316496,1.8222863436596617,0.1822871195740861,0.26189412241067145,0.7355630834793392,0.2745862615298572,-1.244816490677297,1.0805361815755963,-1.0443279852924305,-0.27831532485534355,-0.5716242914833406,1.475364552943242,-0.20519187328709995,1.0880115291655883,0.473727657007971,0.21358011465335813,-0.5001679400475842,-0.34415661055117736,0.464576937800629,-0.25015174706337906,0.31110611987302966,-0.1388241996008421,0.12420771397173547,0.001335303262910699,-0.3552607665308595,0.21225138951144942,-0.1043398467400491,0.2774411769721566,8
4.074798711875678,-0.517495981877699,-0.48547840961960714,-0.07885706515584769,-0.5920919527884586,-0.4193433795573787,0.7189350381940567,0.9525000074366599,-0.6813597571103909,1.7844083405326614,0.9293136194920055,-0.5165151485361055,-0.8021308329927826,0.6576360288143325,-0.7089804404460401,0.5390618914233017,-0.6670890428959029,-0.6181656541197502,-0.07207781643785972,0.8072152269909358,-1.5043847403425445,-0.19785924284741901,0.7901001783402736,0.46860730330946726,-0.47558710034902935,-0.10136994053737666,-0.3419375010529033,-0.033454435718444434,-0.17434571671623803,8
-0.4954260055339559,-0.6987065127689128,0.3304850171115001,0.05946207685308654,-1.141269299367934,-0.9642867799466608,0.5605721406351009,1.2969613094965449,-0.22479273958471185,1.100022834008659,0.11359846298850693,-0.6313601916092251,-0.6710740099928085,0.0225462153888488,-0.8043311404265368,0.8905776207059579,-1.2965743599396937,-1.090289586214534,0.24279237794546912,0.5068160152047777,-1.0650258412463574,0.024026272469150817,0.7363313160637013,0.3637798779949897,0.06236727288473853,-0.010260333701830465,0.3158816098345198,0.28361251358579964,0.3596154605040388,8
3.92043502033002,-0.22957857340022966,-0.8253953549845453,-0.1647443921982791,-0.782446296554882,-0.43939703281898856,-0.35020614058055866,0.37386075809224434,0.022901758918332744,1.1116418667174779,0.36006853711232084,0.384290589855685,-0.45030424424514087,-0.041273676135709855,-0.5993105166705396,0.52691875915729,-0.7963207429814304,-1.0269780004553677,-0.2671776724380352,0.6585470687569538,-1.8523859618579335,0.9934458175292454,0.7882316293947047,-0.7045433027999201,-0.8472937757234493,0.7386041714567502,0.12386334429352894,-0.4044108088265347,-0.0822558847849125,8
4.092549150441356,1.1054090609549492,-0.4844095945498784,0.2810080713891068,1.525435606685869,-0.7417044245086171,1.3734079886921542,-1.3472445967277626,-2.650352197863281,-0.3452781292139211,-2.061910738244413,1.1328621462102553,-0.6186833542810438,-1.7270984730979417,-0.773134360423116,1.283483776591794,0.937048966886456,0.008293978102070205,-0.4960588438935895,-0.7445404971942275,0.02675228518156286,1.4638084008012087,-1.3961911985315192,0.2532634633708534,-0.35938960462897424,-0.2043693500806175,0.2468503103065992,-0.2530661322344459,-0.9893791517015058,8
3.448107738238069,1.3437996871173759,1.2507375657372712,2.1350332444239655,-0.5652615336692876,-1.4091347930082936,0.34424029459368816,-1.8760625615533844,-2.9994397554873666,-1.2623740252171198,-1.795966551635966,-0.08301434570043513,-0.9502840625318457,0.19408488938831958,-1.303114722904048,0.4266522664269855,0.8698962578345902,-1.4880792321467515,0.17036106676335594,0.9336597401868938,-0.13410077077437746,0.519131436032163,-0.47874779015074426,1.2270420885132551,-0.37900594045256286,0.6810063709432153,-0.4938859844133953,-0.6546313739295301,0.09813279005512245,8
1.155804998227287,-0.4948632004860273,1.1148646491801504,-0.4555138583691131,0.5859116969456839,-0.33417671395247966,-0.5412403192809236,-2.0218573293852704,-1.299545009020881,-0.13411753307065913,-1.5154074836537252,-0.25815724433144255,-0.6389076667903283,-1.2069349956229087,-0.8747133034994444,0.7131117056499455,0.324543683353369,-0.9101473460004355,-0.6329968730586836,-1.2540870976439593,-1.0835731955573527,0.552711762111691,0.41985036526683484,0.3202494009372029,0.2908236107071963,-1.4879196324850217,-0.18723837344385436,0.023606740838549557,-0.3254372761278635,8
-2.742599576654417,0.09586847500704136,-0.17602582674159478,-0.6594723216691717,0.4904219726333669,0.38107243213206754,0.1255598892860675,-2.246432517391714,-0.6567209470958856,-1.024259018630842,-1.1260710648418435,-0.6652774951894067,-1.5011972296407186,-0.3272296262602936,-0.2281986460859792,0.8970809364749183,0.3582747278456961,-1.4117999732773026,0.858196455658406,0.0843685113206901,-1.3931539651174478,0.6139438047064334,-0.2275902759360388,-0.056103072174825054,-0.19467491041661986,-0.4873318555927302,-0.6818242370497641,0.11462864590265388,0.41838588645496333,8
7.173431769364979,2.324578215667939,1.9094981075912785,0.6680390484917299,1.4440018774159336,-0.5957834107133959,2.921070071638805,1.8981370805838476,0.22624715840807474,-0.5251272469089378,0.20791100814446428,0.38551992268445584,0.552484928349505,0.15001933763819414,-1.397846754291832,-2.115335118881006,0.9873685986913333,-1.0548538150123892,-0.7202961189802634,-0.15530745985363364,2.477734208195947,-1.6191012885847598,0.10813081133712985,-0.36826905625811984,0.9484984830706955,-0.26788103978145084,-0.3806751208516964,-0.10062552064886998,0.2776114683681204,8
3.458229708506338,-0.27388721106862657,-0.051962901246119346,-0.3468855123249584,3.0259297573518924,0.5863907303460293,2.177631486046503,1.2907195152067756,-0.8273695479305947,-0.45879282311245584,-0.649679793977999,1.8060766389071579,1.5636877096957378,-0.43199407740565493,-0.32284101927912795,-1.368016944393233,-0.8969201068293386,0.09269265931749829,0.3341639385034679,-0.6911024577357595,0.9305272038200378,-0.40901938265067567,-0.3356412870182606,-1.8558960379108467,-1.0615358193449187,0.357792116937351,0.3467961558610323,-0.44221971078044753,0.6889630244322699,8
-6.8784193996963205,4.026091896386473,2.4841085670387097,1.0588844512097684,0.21071022149747523,-0.7501106625484747,1.1012072354826998,-0.3373963705567138,-0.9058113805241997,-1.3984183709367646,-0.14774528959700053,0.19400721497182286,1.492138775094623,0.5674765016753384,0.6645469292359506,-1.296146116251621,0.050471826398827704,-0.8313507695212069,0.23093651505553173,0.6182260340377902,0.5449667696715991,-0.09907601820936231,0.3331317788018207,-1.3761804997224971,-0.24529414108385555,0.8251157430831627,-0.5750366036018859,-0.9937257562261641,1.5583076265808855,8
3.569037956454067,0.4978839095919811,0.09701392844394288,-0.18976817441274202,2.2043754514309937,0.6842843482407349,3.2840936722216854,0.6525933178010028,-0.5571872635755442,-0.1512084208017989,-0.2632182100052278,1.5445513920785094,0.8255132725008247,-1.139793635178697,0.7629397316603695,-1.2695115682214178,-0.530530843948526,0.48551856915981917,1.6965571615168846,0.08828354251573163,0.8186173462466729,-0.4924727532525524,0.15794159733654728,-0.9459811869335986,-0.9418925133154153,0.402025030889399,0.3825750171133011,-0.4443238169720609,0.8278765508810795,8
4.909165767325431,1.3612363112951016,1.8742754333063927,-0.5212608094818003,2.223385363102405,0.5937577079216122,2.8006306170315196,0.03353612743602114,-0.9913736060677736,0.5996385122609675,-1.2996983247847875,-1.4011017465920452,-0.3470301740669165,-1.4473686688351464,-1.6984023245128377,-0.28729133456860056,-0.006861011477406251,0.3853410937898368,-0.31706884275337943,-3.087310769515326,-1.5671502432272226,0.14253398017453525,-2.435608288365814,-0.017933120688796413,2.2182961857926093,-3.1184157388843445,0.5281140910909565,-1.2628143345077385,-0.6348094248970331,8
6.969178817082411,1.8260662375257843,0.9293739179118861,-0.14385049010770626,1.5887729915909727,-0.5675354205924176,0.4661022610932787,-0.9444842514557102,-0.8300115617255616,-0.4053843965238372,-1.4325850924464776,2.2601204512906303,-0.8808246210445785,-2.3792038900821937,0.0871960881687395,0.931137819367085,1.0082545093779802,0.5857780425745921,0.17298102713112026,-1.4554602678556061,-1.3803815263374966,3.496792896369734,-0.7948849783212316,0.39714776284522396,0.7512515936126952,-0.31515117905402906,-1.0931863925907885,-0.2683124553317406,-1.7207214936163544,8
4.648723836719812,0.142046441237567,1.0736619870578692,-0.10253583708332278,0.508313110131202,0.8781022914303568,0.20971249923375512,-0.2922881577270214,0.255580779128484,0.3071358036350528,-0.36441699787335824,-1.1080664024498927,-0.8065004106060707,0.42267936323102945,-0.2739561134037041,1.0588347939919518,-0.6988319747224049,-1.1338184406461633,-0.5466017795177517,-0.6099266552628314,-0.9418470436335048,-0.6563850207572178,-0.21937879308553654,1.4682597934434771,0.19753253095630974,-1.5666304287179553,-0.08434373023973069,-0.5209016815967509,0.13720330775485434,8
1.0820185963278641,0.42382494525547054,-0.6463300309978968,-0.6200417843394486,1.3933827933047185,0.4815115549353517,-0.6246153601105037,-1.6161888776222548,0.5440618223545929,0.003978318136265969,-0.7923531652498838,-0.8867209578516573,-0.31916342410227344,-0.5012944911846939,-0.799378527965058,1.1992856202114002,-1.378283268769258,-1.2274063542572888,0.588388808199509,-0.09353735740085908,-0.5877102918435256,0.6867622363284737,-0.2795584881731374,1.591232069655641,-0.2143786932004872,-0.8213907242645114,-0.19779001230454613,-0.5293383485616779,-0.11155284027525741,8
3.887756670085155,0.04904297293865198,-0.06268256126114943,0.203881572772471,1.9817868898179634,0.9929778026306763,-1.3723632407741129,0.6184294347897819,-0.6565140035575722,-0.469017074028808,0.5617605545207274,1.0999150626957097,-0.14210349655956278,0.975047004832195,0.5259216484287258,1.9195811389797177,1.2640129316392232,-0.22308886621208932,-0.47985334996641144,-1.0457012813177669,0.8070374777691598,-0.14160637049968633,1.7103329446302908,1.5465676300910578,1.3981635956002034,-1.1673222687952955,0.2702602216935024,0.41768336442330734,-0.41459484604611135,8
1.5221249992357204,1.2635342588725555,-3.4448954952994075,-1.0150136605069082,1.9183754048242185,0.563781528384946,-1.6964214886824835,-0.4384753452673273,-1.4439998835293517,-0.882272230832756,-0.23203791237860677,1.2979247599292205,0.23661734451664077,1.578512167953139,-0.45956980006119624,1.589661111390103,1.548164615080444,-1.6384542158948288,1.2155748415281173,-0.578543800865817,0.5067493343502008,0.14281434612940289,0.5973426592062868,0.4025406055660762,0.7559263506780146,0.295926239466607,-0.3392836441882039,0.12355841857973011,-0.8711270402913734,8
-2.5398784065905873,-1.729185085695539,-0.7892943903636503,-0.48489498608407927,2.3708993560097418,1.8296679936600162,-1.8096274017371838,-0.9332865042210946,1.4441628613279298,-1.0273587775178648,-0.3148732450034968,1.8995621939605678,-0.9013797367710102,2.241207487002173,-0.3452710074414876,1.0216424721195048,-0.17650771932334186,-1.3765712708097533,0.9827979490655099,-0.29933353069176005,-1.4511601703123367,-0.4343357316361437,-0.20039354391876724,-0.31108490261125776,0.3184291168585543,0.3295359969127914,0.16612185484351455,0.1589867625030166,-0.1005419610019804,8
5.952588413244535,0.7796088134109768,-1.424298329182359,-0.25214717843845613,-0.784624712833626,0.1942125832799559,0.719470163921348,-0.11724840131420923,-1.164971081074169,1.8047511023930403,0.038257218759221855,-1.2378649043829772,-0.23534994642289359,1.7458562354971656,1.1068360985808137,-0.09445539906289713,-1.0363782234549002,0.13199050500494852,0.47489031973618634,-0.2683184907778012,0.983122666293497,-1.0013281211529517,0.33431741770067536,0.756446379271615,-0.03876077970054061,0.2790010831171701,-0.7106475620908632,0.7575761698985991,0.5143796180940748,8
3.440556622959557,-1.5325923870406784,0.8113950074485562,-0.08466911335765172,1.2450947650724897,1.4628142309902916,-0.3243909343576876,-1.1826018972826728,1.3537046325897983,-1.7779924927470832,-1.2286947569428976,-1.4820594835603558,0.47279048639103943,0.4509775835571444,0.5511694424096857,-1.0768671980291853,-1.1660385868702006,0.012148056454463992,0.41896069494421695,-0.02995409075401845,0.29425167826598786,-0.7230724033975325,-0.5866389883389235,0.9468837998587913,-0.3028308277790141,0.13666318261733426,0.07269681239610677,-0.26133096173294984,0.10828497218999258,8
-1.163830662724761,1.6533235528662893,1.2699836946447134,-0.5736655296627267,-0.10577782845193484,1.053873175649307,0.023312678500779956,-0.39234682900482887,-2.0604931618854283,0.48080521972670204,-0.6306875015283353,0.28345282869643323,-0.1898748421646851,1.590867409397116,1.2444256354190961,0.025239659769416223,-0.26699003081026923,0.27473875343131177,-0.34017706510256523,0.03327278498737268,0.6883053266217914,-0.2746832802100114,0.4183842704102044,0.3517521406034945,-0.4173132274306902,0.9280494477926514,-0.6758117028970354,0.20917272065640535,-0.6278188937793703,8
-1.4915688901541546,-1.3170497385075703,1.7285733962595582,-1.0687258006842644,-0.467915364530883,4.203751938801709,-1.2608693477601922,-0.7172308212834639,-0.7391560452517508,-0.9814633179911689,0.0760882434422042,0.23448973993596217,-0.6398003124410597,-0.07453831167993655,0.7815996902903595,-0.5894468395806822,0.7937608400802946,-0.27847923653941553,-0.8683606086350365,-1.1869173045465207,-0.0015064215669416841,-0.9233416031323589,-0.2005909414922757,-0.19097839691997487,0.23332540337375854,0.9959362421197302,-0.7244061121111783,-0.5795117679784232,-0.3207056063125033,8
0.33848418968897986,0.24072910651986576,3.0557249727240987,0.4542131546864905,0.17111306079335123,-1.196034323446157,-0.11001334097845343,-0.3204408239926299,0.5710103992495228,-0.8237009029930191,-0.45379432004565823,-0.666744931258079,0.41584398082470364,-1.6624039868005025,-1.1156298307977406,0.16270502612686297,0.5290050422970314,-1.6345246502820936,-0.007134064088781177,0.15056610016243596,-1.0834241455861264,0.39461230696274296,-1.7968818692424073,-0.6343035498266422,-0.26110723094402966,-0.6635351088706058,-0.42324923257356584,0.6835094567943458,0.6334844781317811,8
0.8557393194416899,-1.2590247955517537,-0.15913330138238974,-0.2156606226415219,-0.39789105594419844,-0.6476008928860626,2.0652085837619056,0.37465349003979237,-0.32572236484917055,0.29022640549955026,-0.05162889776517629,0.6773983389253201,-0.003072915383917182,-2.2157253579006753,0.418760588174731,2.0009611971559966,-0.4197514603794609,0.22652574164566497,-0.6743965131806466,0.9436931874114528,0.22808382088256815,-1.4117245865421697e-06,0.3066243980092129,0.6097407696728275,-0.1680226478157217,-0.29166098262106344,-0.7169628921706777,0.3434414688003508,-0.3234699443391145,8
-2.7615385153819965,-1.9042123674112361,0.09229132700299382,-0.4260867957351985,0.019165219625453967,-0.8900746355510362,3.470981104166238,0.798701625782432,0.5004344139017718,0.8312149735165374,-0.3955719042802275,-0.022928446197409375,-1.9734220152815236,-1.2474996578437125,-0.8991427603009553,2.3354381514711946,-1.5040187433228642,0.6936103053531109,-1.2264805686258502,-0.014204351154889527,0.6555875054285758,-0.08500853932141747,0.8862438204782177,0.33967191494738913,-0.575482534128381,-0.027182174460294063,-0.4959032849071802,1.0626279098338236,0.9883838489639886,8
-0.14357209222538964,-1.1181102004953607,0.7025355705182152,0.1086936483533344,-0.8658645430016588,-1.092307232154255,0.9750833962633416,0.0564630207133892,-0.7606486057632399,-0.46155356980872175,-0.12033408171238301,0.3918618111335119,-0.22668283958627836,-1.4622437472505931,-0.28661209303126234,1.4194798496643408,0.4026663237338308,-0.5937789456414589,-0.7292848140197892,1.571420584302416,0.0891832844000633,-0.20534667833549283,0.6814267453083344,0.38484638313465136,-0.3086726012342056,0.09887674417419744,-1.3431650540252487,0.5516390200483408,-0.6911998941789734,8
2.0509039818114694,-1.920603094122099,1.7834260737712913,0.025506453097379662,-0.5431064323968747,-0.34678983859263723,1.0914411862423348,-0.10996562200601612,-0.04923387181724625,0.28390780895821166,-0.833163733396238,-0.3841385508191455,-0.6053754854004039,-0.8104312640627073,-1.2685226034487798,0.19682786887945586,-1.0511553859909015,-0.09588764696067735,0.3883244648790923,0.8966452085864592,-1.4044502409946085,-0.2801036348196464,-0.0032661904483410322,0.032698200948354246,-0.0327732400552025,-1.027888617624222,-0.6471712111356136,-0.027973577492772198,0.29307129492579587,8
-2.2584952431554686,-2.2877659919665976,0.3252090629079085,-0.1819633683628484,-1.595125635339382,-0.8233125270868342,0.9381822044856817,-0.3718479377887409,-0.018936806548324213,-0.03431045811867913,-1.3078751794218961,-0.6908493619673305,-0.18746019946887538,-1.8846407043026239,-0.9439381942067847,0.9557657329004063,-1.4181926277332046,-0.20493387252426912,-0.8129891229555991,0.34338131073863914,-0.39203821562644986,0.5879323426999207,0.2482637487584537,-0.5149388665780992,0.2433146029593323,-0.7095679869206835,0.5765495885829943,0.19286387986858594,0.9905714350411743,8
-0.6133352739400167,-2.3353805602107474,1.3680892734041243,-0.361228358822339,-0.40614009149560154,-0.33677003045593035,1.0834301346850164,-0.0033209638287444443,1.3667040146913711,0.40348784184629566,-0.1754923234163699,-0.5764265943759436,-2.047436086123715,-0.0005577543287820189,-0.42823751770808055,1.5606706992328507,-1.598032284043828,-0.605905722782552,-0.3001762483640363,0.28541076043135793,-0.7298545068342919,-0.49472621419419394,1.116162343275396,-0.36171725300860763,0.15435775158937887,-0.1377240154144167,-0.23285750621015483,-1.3259937690589205,-1.2469895803640951,8
-1.776012542946574,-2.5862794328213767,0.8918543707285742,0.13567446895733346,1.5375422154001221,-0.5857411032471838,3.426016848196362,1.2389932232742775,-1.4035744861190538,1.0064294809061256,-0.16787918480489197,0.09154665146622579,-1.6283327204294966,-0.6185951937428019,0.11656460811008575,1.9395235118745842,-0.7709004396924751,0.8015863891562732,-0.6537465202282843,-0.5290496815133378,-0.32379380280640463,-0.15113912430593035,0.782727957020764,0.09758702956529408,-0.3784410531449756,-0.4249586256815296,-0.016732143589213214,-0.27893074727527634,-0.18783164257222645,8
5.139080803234049,0.33196395934625356,0.1749803963354827,0.06267335225868902,1.1879615057026123,-0.15913279719143883,1.8227640962970526,0.38267104826675546,-2.0646947550175936,0.4561011519654697,-1.1136496083258034,0.463388819192111,-0.1387797591776139,-1.1824159287727654,0.9918865581915397,-0.2890383073180415,-1.5220111705937795,0.00039331724496095193,-0.25851130449241655,-0.2575670689749481,0.31287124191991067,-0.16291172743817772,0.0967161931284694,0.5480546989601662,-0.48556436751515036,0.0170321185010828,0.024974883487609394,-0.5294606970559771,0.2866543949305997,8
-7.357568667769819,2.3125785213994887,2.15958653312734,-0.0361320729106203,0.7564888463921999,-1.024340912583047,-1.718680766814308,0.7301606320361299,-0.8328414499679443,-1.357220256824893,0.09343080688165957,-1.227634965937737,-1.6492408392695492,0.20524854013569171,1.8935113945116293,0.8128747528729492,0.7160925151703184,-1.094822995509166,0.2610945476601232,-1.0532586684225076,-1.079726800087274,1.1553152771324022,-0.8665102589289532,-0.9909000599353693,-0.20592725938024045,0.19272581247054274,-1.8139310783375795,0.44533475404327655,0.052993529868083186,8
-5.519572713332108,-1.0541649945922151,1.5520110828385625,-0.1618606685059031,0.6895638839128516,-0.6509680978739183,-1.1535226505440173,0.5082379724796576,0.4401199117083093,-1.4834731798374163,-0.06837076787514143,-1.133192028683568,-2.13177026908825,-0.44768654089116705,0.9961363095957363,0.4240262669961404,0.4267719786331449,-0.962281400186487,-1.229110209859499,-1.048685070639942,-0.4818688994015227,0.2665626632724507,-0.5416118611049834,-1.1939719083648508,0.09363244479797365,0.3088346551858626,-1.0078883717275144,0.4300871376838937,-0.13464837806596539,8
-5.224649414016492,5.638193403884113,3.9363834449700654,-0.48735160160276797,0.38080659692041674,-0.13503824807000475,-0.7765269945957224,-0.24779326929294915,0.16807404895187053,-1.485017145275063,-1.0018769854164469,0.44954181355947187,-0.7360910685378163,-0.5025088294100732,0.4862234459701897,0.25078818023498745,-1.1488627746578222,-0.31217190784780263,-0.1232664532946376,0.36194592686674004,-0.4905424863709215,0.2100401965627014,-0.31027764197453717,0.21058898512336813,-1.0598957677173833,-0.22647608892403046,-1.364791767299823,0.47293271566335154,0.7891986765210529,8
2.810856080749954,-1.4456382857386036,0.6614121023081937,-0.017474315316855768,1.0591610546474974,0.15652914153645503,1.434345422496694,0.7588307160737664,-0.7291868341925627,1.555843206164593,0.44173397618351185,1.7334946705406566,-0.5344979541404925,0.8138167527349475,-0.7175247469020559,0.7712597781597973,0.34520537474043134,1.2320182632582835,0.7069158103915711,-0.5945860761923556,-0.3371713905259587,0.2849391938832743,0.8520159726309764,0.2318048207320665,-0.16852482337754005,-0.8130281865512919,-1.3106413750470216,-0.21446627528062837,-0.9379946784820998,8
2.737956070678257,-0.8240932635852056,-0.9022267371350332,-0.1616083524718316,0.1808293615903612,-0.08131368053366696,0.47171631727779617,-0.3137430276110665,-2.2536051337932608,0.8088371772797915,-1.062292779135984,1.7124421962059915,0.5250190800921386,-0.338983701497382,-0.585311694831389,1.2703792452879337,0.4008957575858915,0.8123902133617878,0.5895084241555681,0.3679136211966935,0.15346025294892862,0.618208196302692,-0.36809947684270766,-0.5735118102500661,-0.5487043897440133,0.14895812397593003,0.630271293037415,1.6374520405600597,-0.17463627200658613,8
2.628732634508054,-0.5769908653390028,-0.6130814203807781,-0.28455876806439045,-0.809587920449507,0.1769424389894085,-0.4894125238969741,-1.2791625287109918,1.645770057896788,-0.9835305684425883,0.1713403016130388,-0.4564581660691684,0.4394126339056364,-0.7207683736798637,0.7203681872063394,-1.7319588885347916,1.0994897174517646,0.2852122897898252,-1.2762632358856958,0.34335408046241633,0.17096896581311785,0.6499111426170907,0.16478294314203962,-0.4823873669791088,-0.14762008957675435,-0.26533457046764375,-0.2818153103990439,-0.05767713284228913,-0.6588115309924655,8
1.0121976369955072,0.45138633566313807,0.4887994846742145,7.486369223536974,-1.1208311057522782,-0.8021535160661306,1.0045341039938032,-1.879499526450645,-0.15318103272084174,-0.6426831646230712,1.0327719800121535,1.7452470730915657,-1.5151502256569138,1.404237276694098,-1.3926749318284763,-2.4679362524602464,-0.297187716419423,-0.6426230149465958,-1.0513669888692034,1.0109351861024218,1.5262224606891661,1.1385487441658886,-1.3560342215379348,0.09833075800114248,-0.5482042403594866,0.9254783623743661,-0.10606578158144606,-2.0294326634066606,0.3192059279695565,8
1.166443014998063,0.7762929032762662,0.5553405889852059,-0.9086276219976651,0.8221150347376692,-0.5707503679862959,-1.4969222040848853,-2.912720125201768,0.7797834038138745,2.212491753682251,0.6526389566810037,-0.7302247828654731,1.7062161398090647,-1.1332675307317488,0.3280576600728175,-1.1956086522463014,-0.31180814421024405,0.6898702563736895,-2.6344501917791505,-1.5934384279787057,0.049414770253129126,0.9075567261000097,0.3971978601109769,-0.7190872655668672,-0.7708452349682614,0.4510840926214418,-0.14099286760167173,-0.5481270668751419,0.15711387213941677,8
-2.3156797566017406,-1.7931322193047465,1.6816959177528503,4.212057116153611,-0.23250530977012385,-0.5088058979671132,0.1347086638047153,-1.1018955454688937,-0.46337412525200966,-2.197468812002474,0.12711060485919895,1.0683302301374482,-0.11255824706744544,-0.014482814070530774,-0.9276163498565451,-2.143807837511892,0.130604829732533,0.43529428811264975,-0.7982997292823084,1.2663634475681473,1.470793694186151,0.4970643138862779,-0.03385771117536456,0.7047772915081089,-0.02323488721821213,0.04463460015673985,-0.9132783441810511,-0.6254624237607275,0.5781073251313752,8
5.8295890577205,4.458849432901341,0.15541401171512836,-0.4890129271160476,1.21605701188093,-1.0222015445471988,-0.38156502340815585,-0.7150532259790173,0.18186251828285804,-0.47057078342247866,-1.056113579677363,-0.0601275167434273,-0.591729778980517,-2.2742561386139055,-0.9299278935684304,-0.6197074992245939,-0.40185125325632676,-0.51457234243326,-0.14128015291355597,0.09488947464246399,0.460321233614755,0.4695845662533133,-0.15456912096030145,-0.3655372989410889,-0.9247256366237442,0.3036213244804684,0.28293049244719076,0.30112955876109104,-1.007822295921899,8
-0.07920243595117289,2.036183193661019,-0.23809303084682928,-0.0022945003923150265,0.6699991496482877,-0.9378467543797423,0.21951509868616967,-1.12511146233912,-1.785364466023637,0.8437831101895932,-0.7324651981514761,-1.435161781778643,-0.040498019450596626,-0.7463440454916165,0.667516926741754,-0.5101943231365716,-1.561183060690885,-1.9163878380954666,-0.41032085787607303,-1.5297106183513665,-0.7189759017531724,1.2809817247348905,2.1440821122567675,-3.623582665060393,0.22522630315934025,-0.6361587340952687,-1.929443414213318,-1.374469571506605,0.5233308502737692,8
1.2160406979932297,-1.6619719358049565,0.9901157504740637,0.3346995291082147,0.11124175587388414,-0.44404256056245944,-0.8995079720000129,0.19953266106862114,-2.2578026096048536,0.4008126492711084,0.1611165695608453,0.6523480687332387,0.10587517632764896,0.5855386689447135,-0.05362085211888155,1.0221415818464734,2.301078555076769,-0.08384876340611136,0.15026552422151535,-0.31343229404093415,0.11545167149192054,0.47102335396144507,0.8793269543712091,-0.19099279230137012,-0.4128537826653706,-0.8806562832431372,-0.8695215867239947,0.6919307799092549,-0.39819104188593873,8
3.9616593975191994,-1.0791330041148957,-0.07982566284597378,-0.23553889995353228,0.18515678082909165,0.6088010989586032,-1.9283344794554562,0.6095599237589023,-0.5087026167221536,0.4809740187362176,0.053860550461436334,0.1361470303332851,0.2372576795277679,0.45963885172000984,-0.10856081719082337,1.936945970782698,-1.6099796226449763,-0.9621816582790087,-0.13757366762822856,0.3720267893036991,-0.7464986012103448,0.41575842197641955,-1.1207601480724108,1.1105741112023202,-0.7357735723102804,0.40008346527483685,-0.618295077334883,-0.872751593955553,0.06960548922389502,8
5.5157590726988905,0.12513542302078437,0.1940488111908622,0.04885512020461927,-0.2171347817324536,-0.17146023827672924,-2.2213699646712834,0.22448775402159604,0.6491861924705584,0.400694081054739,0.4735576220052685,1.0537816916520926,-1.1247121384836223,-0.8125331885532435,0.36305213784899987,-0.8250218646334792,-0.5482960746196505,-0.75820991501174,-0.4101923248216079,1.0416115277830644,-1.0135645415007752,0.08394737668944545,-1.3382285713583437,-0.7369360267942564,-0.5403437258982499,0.7438176541781227,0.08580701037640485,0.17196754112796808,0.6267400155187131,8
4.604935611816448,-0.5640261306670844,1.6510468589465954,0.650880343260322,-0.7023524551722811,-0.5921869830475862,0.5753070017519155,-0.09326835191933124,0.08504301765250045,1.0566866237801031,0.059508127756182055,0.0177099406285266,-1.4678705573310178,0.7408119913025936,0.22202474178053663,-0.7316426600103505,0.27813702080944924,0.4184090450087021,-0.10260667967666497,1.2518898445993958,1.68565049381204,-1.0746750734462776,-0.6672826680372096,-0.2438437164328924,-0.2686011865220679,0.6410452953741038,-0.33677375894249234,1.1730116957335477,-0.041742951417316564,8
2.088801015070892,-0.022458623434605546,-0.11005558982985628,-0.6133378799033496,-2.1764462790826262,1.3820243437636217,0.5269481269306604,-0.4769396177140644,0.46903177947226754,0.7581633063192037,0.20393290993550664,0.42468839794058766,0.19363076194061474,-0.17727861725706717,-1.4262082281036608,0.4332741308434123,0.5487941776841239,0.03292337340691582,-0.04886524520200273,0.2597884292860821,0.3540201783941666,-0.21840680057794498,-0.9980054699375231,-0.5397777900493829,0.4002311239051702,-0.4983337637756393,-0.5865613989457957,-0.3331593404181804,0.0952104832278934,8
1.1888782641781568,0.8203453391270383,0.7242092962989575,-0.17399299645362387,-1.6665188120211873,-0.8596206319776581,-0.877871613943933,-0.09271922817050048,-2.202488329044957,0.5818237069249146,-1.7144897526701304,-0.2307453243207864,-0.868858449545416,-0.6503341808637532,0.10647589978582864,0.3135468393669482,-1.8343166931340757,0.17529646249818076,-1.4443802312996428,-0.22679312925126968,0.292770207805785,0.0011975840817533402,0.5726256551493615,-0.12460644085383445,0.6133269813834917,0.29853678214661666,0.01733695674655905,0.2062277523149202,-0.024633143019860294,8
-4.702037688046299,4.299218562423839,1.6792315347349174,-1.4612867847906998,1.8476895322295164,-1.4118252151364743,-0.9535844480177323,-3.2503569453390484,1.4261582145852583,1.1350284321683306,-0.597016179530062,0.3908510184488669,1.3223724892343836,-1.6909155742514446,-2.1986552950657727,1.3989890965019458,-0.25494688820043887,0.8215906485234228,-0.4664458331727589,-0.6245904284905859,0.7775726723492351,0.5554942954486906,0.0554493813601899,0.7523937520008283,0.05460683210199706,0.3259320545019118,-0.10038817615307552,1.144455958560775,0.8117315878142987,8
4.7842202461871,0.15644134673868412,-0.871233977894356,-0.3920252430288128,-1.1390638125532642,-0.32282836126146386,-1.0210243899958085,0.16544283592632764,-0.6005671572517756,0.5562325665524523,0.4670431882819278,0.22527884454484193,0.9613427100215423,0.03166328780925842,1.3881190845900684,-1.198570486684966,0.4020116218304285,0.15195857888880082,0.003598756860358469,-0.8115898430811843,-0.699238973153991,-0.5269399697530457,0.15147765749562317,0.44202872794700365,0.24130087966182093,1.3455902657586023,0.6816819322868177,-0.08994278478008887,-0.4884137779915569,8
-2.1320746588327473,-1.0321474902282581,-0.17634739594065885,-0.273254348700784,1.653975642766844,-0.5609966033418918,2.6716947543003227,0.3447011005215674,-0.90367969002698,-0.17941643420686795,-0.8315566697943364,0.5990584800253016,-0.49250041012030604,-0.3694280815003652,0.4004507782765748,-0.9385692142366785,0.18903303086671852,1.1867131835771902,1.0892196016396385,-0.4502040992915229,0.5217128847468523,-0.20262456268090506,0.2953603033207523,-0.2581542330535858,-0.5124345944017853,0.6147901760385435,-0.08729852054677045,-0.445650156620291,-0.630067479746315,8
1.0592593050701915,-2.042773443750456,0.2023611056446616,-0.19219265230047258,1.7525171006476872,0.31883143423800575,1.5720038977744648,-0.8097148829729317,0.47492965332913206,-0.9410266743790822,-0.5033978594016982,1.4133249494754816,-0.05038127948127393,-1.2918801329538179,0.7264382706737726,-1.6205495772069205,0.20337353606528646,1.2429208204342719,0.8484970921786936,0.432884038882022,-0.0061862137015119825,-0.15971741568112052,0.7833619806202882,0.021150051304348078,-1.2497411372521519,0.08175737408907502,0.08007589684959698,-0.3628371369580796,-0.11470780358014807,8
0.6835945898294784,-1.7968332042512134,1.6099703074867784,-0.0025828493083188166,1.8409466763894828,1.495790203754733,1.8075538844850811,-0.00674612985645252,-0.610094584505998,-1.0897225133197317,0.5660197388681534,0.9172436872720048,0.33182995828493517,-2.146516704051299,2.0467685466954055,-1.0090552336230347,0.6380116553522623,0.8760662723660387,1.4922769692797888,0.5472319148945233,0.7921283325569611,-0.40443440208555903,0.785664722288556,0.18726616326727855,-0.9803939426662923,0.3699218850414801,0.5594317356067778,-0.7004141347750387,0.35372995232455373,8
-5.528663939964187,-2.709529114812958,-1.117501061570905,-0.555404234031613,1.8372880537962126,-0.17170275619324968,2.2438855412726078,0.890138630427769,-0.6562517331123396,-0.8676866103642484,0.5048860552156454,0.019744873505105537,0.6727864056443278,-0.4652464786730835,1.9509011990113605,-0.36524959442731597,-0.29170413579047305,0.6160816923168547,1.2312675459152829,-0.8031930249488685,0.30190924594367047,-1.3556717328914885,-1.2115216901749104,-0.3101120682621947,0.1706053839181978,0.85918008443481,0.6463046940773376,-1.5674189381293913,1.344183698344637,8
2.4599872325106045,-0.4719959921503902,-0.9526226229620333,-0.42358911752529693,0.49553538333533403,0.8318014075648565,-1.8000975715978356,-0.31212144639220474,-0.08563430549841435,-0.36071745057954446,-0.40745579803885495,-0.31752377920787084,-0.16003246598512136,1.0357150682169118,0.559444392384654,-0.04439671015029978,-0.7626135248463161,0.08032311535596531,0.3493724939974473,-1.1260693930533126,0.07229478727264371,-0.7415559515917789,-0.049390416502540314,-0.18788236186802998,-1.1448720372258638,0.659403557819875,0.09191882082858854,-0.03018689269814194,0.30017139774581264,8
0.7149630996173338,-2.2012572557958094,-1.03725595054037,-0.6660262921510913,-0.24699170276392732,0.7838456799742448,-1.80549352323411,-1.3849721588466641,-0.18940407219981156,-0.43453529949369807,-0.4950022345892029,0.6792570617920183,0.5425474366383358,0.3636335920135301,1.4219651683166423,-0.5106592853971992,-0.5469443755443975,-0.6371895934628352,0.5833803982871334,-0.30170259774792296,-0.06683458502430216,-0.8910681106731544,-0.2004095507812078,0.391670673099048,-0.25492586846130216,0.5735401995768566,-0.022272431126995226,-0.17483837388463477,-0.9504206178971351,8
1.2473786166051162,-1.7579740307312377,-0.38336190493762456,-0.1562967563945239,1.1596556532449043,1.2011089954705423,-1.3742110154987137,-0.07216955038525702,0.6168326712916878,-0.5461809226437128,0.15433892340995703,2.3592706753608748,-0.2194503510251858,-0.7456848615336821,0.6527047267745772,-0.611142225698428,-0.2366548364673453,0.599411849057415,0.1125850484912379,0.11637333221764856,0.25192817680493335,-0.2937331861539419,0.7661653633356796,-0.054460218043342674,-0.2324637468212344,-0.7980152835069619,-0.41927332860453076,1.4703124999345087,0.645962250981129,8
13.604545560908985,5.2679809602886625,-0.06963422979512306,0.48174788287145265,-0.8067310395290787,-0.5717185342255475,0.8514420962241505,0.7788573316147033,-0.8432255225637572,0.8635290602796345,-1.2267357433439439,-1.4401290504852995,0.8732329979383199,-0.12094840025883967,-1.3815930753545687,1.6265954689337454,0.48221898694648485,1.9918670573051405,0.5361660079243634,-1.1583550266822626,0.1752210583121155,0.6426257783464662,0.15654171601402317,-0.01003192225071607,-1.296949092139125,1.1252824557670915,0.5303988702816704,0.32069028662540416,-0.3594004275434875,8
4.823446064744418,-0.41099305518101975,-0.30765619965227564,-0.3697717334239187,-0.2750018473299875,0.7025229511087193,1.7120957520120579,-0.978586426281311,1.9771724278996339,0.28348606612369226,0.500738730299985,-1.9560325748795446,-0.12998888358378427,1.0232788630496863,0.36584248171653533,0.3839475264530374,0.0909791177002544,0.08837421126480668,0.13322135534005153,-0.4757442599492872,-0.7494686596535652,-0.5772554809152846,0.3463372760829608,0.8180978612638443,0.19705457884996447,-0.1594205195898189,0.6229968603756338,-0.1855664341875048,-0.5536664818025472,8
-1.8559174545866246,-2.6652229352130687,0.3027573947384508,-0.43955442067217265,0.2747793224358287,-0.045167175715719335,0.0497697777840553,-1.46396604053641,0.6560254626178808,-1.4668534106207474,-1.0721693910912853,0.07083140878709734,0.5657670357881133,0.25051361618317186,-0.39655933567574875,-0.06679185564820492,0.6726010060995057,-0.8668517699040073,1.9310807684690714,0.856734326222533,-1.1033102297739779,0.0677557872661333,-0.1636149410021148,0.20678095838743146,-0.03255313430404389,1.0600844648678336,-0.6729330098725446,-0.07700111445018115,-0.4969353466684023,8
4.796148560249139,-0.9629931594465422,0.6320973342616057,-0.10176835598828927,-1.46061255577754,-0.013471588511204146,0.27258130578519735,-0.5963014150915947,-1.2124394243756556,1.5318900874843968,-0.3024002493564636,-0.1546382243448882,0.9989268290710017,0.9568882501256177,-0.14601643864159083,0.7650771508802119,-0.11907435767938256,-0.020028657774319128,0.9325807197502491,0.11036724623617539,-0.4070556788384844,-0.3215319758755375,-1.0048113005581096,-0.7867636246466065,-0.28777110223411667,0.0841291583768924,-0.5266815151967265,-0.045159092901738175,0.0943789007082133,8
-2.6014308699601427,-3.328892940848019,2.6947903468306023,-0.3533064397929951,-0.15540614365369684,4.77477722970998,0.5540048209487741,-0.6080829840241897,-1.8765623680966979,0.7459330594446417,0.5349800427122354,-0.6215053347012381,-0.6592323108948713,1.1435501222571318,0.49095588013222086,0.4509912104092694,0.7779480490338989,-0.2656384883497804,-0.5201565260629176,-1.2923398403897182,-1.2298805550151328,-0.27664362689803995,-0.004124702597198388,0.3966704064100855,0.0022011187280117682,0.4430502786857208,-0.2785004437324274,0.002835829494804111,1.3823907948613419,8
-1.3110233445840356,-2.62442092971177,-1.4208836680723105,-0.21110714556097948,-0.6974110216783248,0.34182078036979807,-0.23085147253566907,-1.0973861639298972,-1.5275283019593124,0.3419050442881813,-0.11973096083867533,-0.7031033462086522,1.3277920248653556,0.8484093643537054,1.4409130314691,1.2884790345887251,0.27850226788206894,-0.20177690684920033,0.48928628215903985,0.02954091118486108,-0.6285358179369942,-0.11138705945175144,-0.40960612875526076,0.4763803497727569,0.4079416109407096,0.23803076016402144,-0.1478576773454913,0.3655221854788507,0.46686294768821157,8
-1.4773309951508728,-2.951988526565984,-0.8590247214246259,-0.5299523279829705,0.16590553634761898,0.7660417531325259,-0.3842437389941801,-1.625057850619891,0.6265592350947803,-0.9350285562697518,0.09658021122037692,-0.020400906814745504,1.0616368744200422,0.181629501087433,1.1043584263040458,1.0349091212849437,0.2325762342837845,-0.30222965293440834,0.4772139209586074,0.7261988959539597,-0.5552559837558195,-0.22812468226595228,-0.35598023260567785,0.19615890923091067,0.8928738870356676,0.3786851179618828,-0.5389609309841424,-0.08308513219160689,-0.43714525265068854,8
-4.113730595745203,-3.191525384003666,1.0189489275766015,-0.4404647733276463,-0.4227570594892636,5.864004025168925,0.8986236764952429,-0.30288990392077875,-1.6731058677218686,0.8344597320616889,1.3640949628373946,-0.9719660270989975,-0.3377008564064741,-0.013951078896723519,0.46898050078095804,0.36379146779060106,0.553773780892243,-0.023455621639017488,0.364977395645442,0.4917112102455941,-0.3680166113295002,0.0294769563506667,-0.40757353107352134,0.40115138020722746,0.42864502998953274,-0.8833143836797208,0.3305371770383548,1.2343107349914064,1.202454303425881,8
2.6447984115943974,-1.7606534227285353,0.6516842850972766,0.5228464934068997,-0.8254615218146496,-0.23429892837767666,0.0915569060927325,-1.5233866531237186,-0.3372139930613635,0.17440400371665377,-0.2652607642220858,-0.20795038243132286,0.7574588606309166,0.19951781052623843,0.2326056635741738,-0.24246623853835358,1.6174850396020033,-0.04250132047513981,-0.03904769337940748,1.6997275294663152,-0.19267088328392618,1.0017014771458848,-0.5096970301870904,0.10412238820019612,0.29955290191771,0.34318637539433905,0.32528354404235227,-0.708468399867887,0.05655536213489122,8
-1.239148061297055,-2.663697608637276,0.8433671233807493,0.1953150387831298,0.8853657160087683,-0.1555566471952995,-1.192192916696274,0.39895139071372543,-3.1938853989363047,0.6286042672986655,-1.1804732812574057,0.503191120502654,0.17221024211374167,2.488678392163282,-0.10006966996283632,0.6397709036198286,-0.027810709435433532,-0.5025164758543389,1.8555461032413618,-0.7555018781747314,-1.1255036202877509,-0.20385237993969657,0.29182216447860937,0.8905111231846192,0.2721571842680583,0.20334902756411913,0.9846722529832427,-0.4229429262061446,1.204184362261047,8
4.7333511227642555,-1.2868657959128613,1.3031932277477696,0.02383288640029545,-0.4870405345736406,0.4038491939478685,0.4864400726617667,-0.328035315784155,1.6346304974848624,0.5786950977474765,0.561064960438699,0.3217214662671441,0.5731490585808654,0.5906839561902062,-0.20829521741449525,0.04892713649235406,0.055999488280723285,-0.1548375294759108,0.784962124457007,0.6295457494131946,-0.9956076653909293,-0.20577881672245538,-0.33980556363138015,-0.2531178733519875,-0.571788641258754,0.07936821306389501,-0.5033492382589367,-0.25576505933137017,-0.16324085665117474,8
-3.0962615454295106,-3.0933015426907544,-1.3393581435006439,0.3171344746867217,0.40904350489522084,0.25780308606382313,1.8716076661608667,-0.7812203670051475,1.0107779943481785,0.22541080901775704,0.5040572312117405,-0.46704169841325327,-0.4566360951761023,1.3705333916499438,-1.0266178549046654,-0.08242148503850859,-0.09068772789864882,-0.3737094036496639,0.3107073294887439,1.2387112373941327,0.10846971118205886,0.3847647480346681,0.48500168183773856,-0.31111099236354905,-0.49413215621087403,-0.3315535194702402,-0.18440000112579677,0.15086694609417373,0.08818886571260096,8
-4.0873830622382235,-3.4639560773994105,-1.6662989299690047,-0.2557330648046597,-0.5554524003972134,0.2631295663992535,0.25356782470434547,-0.7203458097877656,0.7179019068218093,-0.36247408891371347,-0.07008988822619527,-0.40404561730917565,0.8060623112011468,0.1136257390547867,-0.8919365464326101,0.19223762712913764,0.4801322015481594,0.12613583224896166,-0.8082985528389393,1.0301679124719874,-0.08876764172276577,0.8820565398057278,0.2721794380641662,-0.6277592269369628,-0.1793163547110754,-0.4271052071333359,0.07488173161974375,0.32469740759226134,-0.4403081018142523,8
-1.8497186906599625,-3.656172491108968,-0.7150285738042,-0.04227138706125604,0.25373850002448134,0.28688425732797457,1.18467662593073,-0.6087803715244338,0.3441702918427201,0.5485231210444175,-0.037473811020556504,-0.26031283364155994,0.11522365155774483,1.118952743057533,-0.8951696928546045,-0.42063952660581927,0.2872633369174962,-0.04246157757157761,0.3280979459822845,0.8078730146692674,-0.890677138051372,0.8082248121828066,-0.15173145362312324,-0.2389874749943982,-1.0253103009563351,-0.10217518995143245,-0.29350588988574144,0.6178754172736615,0.7741391152906589,8
0.6824653526707546,-2.2924714895553655,0.31087663689535616,-0.18950991277728596,0.9291775838012402,1.2774446209986217,-2.9101598567307465,0.23285057231610493,0.07785972328693011,-1.1378070085263692,-0.30191962608710776,-0.09126439980079734,0.1443246107375337,0.395765266853013,0.5456977806202196,0.6755448908497284,-1.2446977864529993,0.9495209325959677,-0.6014373997547562,-0.6157905551007253,1.2863179104760898,-0.3236543047303397,0.07015395674638064,0.619267231396759,-0.33069022261740877,-0.05392412579648599,-0.505548955163644,-0.44451074226279574,-0.04660172895894623,8
1.3919489132037444,-1.199435346618901,-0.2505160985167741,-0.33447117427097695,0.3120901457859159,1.8661244521438078,-1.9931101450118796,-0.627233735126652,1.3496892557012146,-0.4454126759418317,0.48309389246299406,0.6156686081778635,-0.16206210932980913,0.17033644057839795,1.3135280963664788,0.022121383867816286,-1.0248371961644955,-0.4482509759326436,0.5672445029901334,-0.1327481601372772,0.931012813931246,-0.36522605909473826,-0.6891251085367666,0.799454471890381,-0.01375625917697319,-0.30111166249985455,-0.28526474792041845,0.04285685183588372,0.6206138118960939,8
1.124502226375973,-0.11843243720119205,-1.188311806019663,0.038152742596552776,1.3781247241065202,3.3463265644414415,-1.943876506570057,0.5339882243961478,1.7501436957302896,-0.024118852698909288,1.2621517014315933,-0.9764804976305063,-1.3333845064328729,1.5000836936970428,0.6459717512190848,0.7712603701035076,-3.007686338336433,0.505182044163801,1.7736768992099132,0.8500724093464657,1.2219468677884078,1.1918710434520352,-1.131202359542397,1.3901731671772048,-0.7892568857528665,1.6988764316272373,0.1698776359534218,-0.021664341680565153,0.505943978680987,8
-1.3314079999457529,-1.773612015356472,-0.24096399465081905,-0.5492496184287249,0.24964252615371837,3.8969897933829105,-2.621949019906568,0.3546555856928051,-1.0185903691638651,-0.215039028267116,0.2428584717867477,0.1792064181123656,-0.37331322027556935,0.4535644356426465,0.15820305503056412,-0.06234047035793234,-1.1326790738776078,0.44350371718965065,0.8188062680738551,-0.34387553570281154,0.635174666010208,-0.0631905489048618,-0.5438579113124912,0.6478045109068875,0.11817831828184841,0.03523827542112368,-0.7022496408220844,-0.4489619027644033,-0.009386524251328287,8
4.335108695438665,8.39241508503136,2.878849690663912,0.04891740505685182,0.4493747613031337,-1.567823505692091,-0.4960656705766286,1.7522656464838338,0.8519683184487917,-1.907933860714444,-1.228089534699509,-1.6226169834410562,-1.3260587367405028,-0.9603296293846412,-0.10345093088836604,1.2036230117094542,-0.05629204408243385,-0.668850398974,-0.026584153315306537,-1.0816008487200364,1.0467783524766159,-0.6267214553526432,-0.25663612472252334,1.1121291213385864,-0.03784175215760299,0.6995244458656789,0.3758792359502375,0.6515348032613217,-0.7149626668839204,8
4.8077953176698704,1.5653823069390453,-0.4364595930765305,0.9563977066302861,0.5426721866145279,-0.32978159464038714,-4.179837334622637,2.1135977244126187,-1.5904670905218141,-1.2912630022230673,-0.020046380920581405,-0.5269346932287056,-1.9352917740854778,0.22232742247601495,-1.8212158783611767,0.324217787824763,-0.020587855588242675,0.8690172136692856,-0.7310119530819635,0.10923302181406314,0.707353906731004,-1.1407546970919487,-0.5461386676090199,1.6825861959834514,-0.24552030495313298,-0.18246412355292171,0.09811038745532956,-0.4056737765354616,0.8936053183918623,8
