Feature1,Feature2,Feature3,Feature4,Feature5,Feature6,Feature7,Feature8,Feature9,Feature10,Feature11,Feature12,Feature13,Feature14,Feature15,Feature16,Feature17,Feature18,Feature19,Feature20,Feature21,Feature22,Feature23,Feature24,Feature25,Feature26,Feature27,Feature28,Feature29,target
1.9428333106117224,1.7935565645935876,-6.121473670043061,-1.0311320554590109,0.4871069289051863,-0.3461161550943364,0.2424928270242888,-0.2550906399606736,-1.933792622492772,0.4561285312204522,0.9233590324247396,0.7373017001449977,-0.7805400392745918,-1.628520867457363,1.421999299900325,0.7040113372461523,-0.0014644237035162,0.3830000236958877,0.7195895421787306,0.7534480118367349,0.0212942812194294,-0.8767906987588466,-2.8043823768193805,-0.7727520798326173,0.9022501592412492,-0.2838208531434306,1.1581096650024707,-0.7031442157868841,-1.1425074809716356,1
-0.4982660028409233,4.2903552463023225,0.9240833643413706,-1.2814926597773688,8.153378162985156,-2.302476288510613,0.61529633729858,-3.871440664646847,1.4911847223069508,3.666561043153924,2.7853667167595906,-1.6365750736870297,-0.7202330528121238,-2.834808921001163,0.9402426634941012,-0.7423873261707327,0.1051146643531897,0.064431207668251,-0.2537268457464388,-0.1103089224580893,-0.0302258270185279,1.0767762520505104,-1.4266617668720238,0.743056580056939,0.2128675928928772,1.0439472171319029,0.9482726284656012,0.7061282593258138,-0.4911247045984722,1
-1.027512135398705,3.363755384266737,1.828574155716523,-0.4958022638920728,7.458819667104317,-2.4848516691475355,0.3784148589272917,-2.24870048995012,-1.3014244729591151,4.136351362401566,1.7701746661376885,-1.423328705583,-1.2443202022138666,-2.200412975389129,-0.3019767038638908,-0.8901549103712071,-0.0514906500224226,0.553461727607112,-0.2925400929718107,-0.758677223822494,0.4721011583104421,1.2069315589454606,-0.923403976724513,0.566656728710279,0.2930710061913267,-0.145078200697451,1.7596494074338704,0.5163513694145941,0.4924291126212211,1
2.736755843464848,-2.2417307509207856,0.4046603764267591,-0.1678607808085381,-0.1254423212533029,0.4967062504912583,1.66438169113205,-1.2710255420037704,0.2137815053639331,0.9620992796034415,-0.1743099035287209,-1.3308029595075883,-1.1808661473954198,0.6171751074670778,0.5251329744935939,1.0378156813760209,-1.295388742655423,-0.7833801787172845,-0.8162290966327702,0.6973728996113969,-1.3766142670611383,-0.559114465471008,-0.3356200940196985,0.088591364486262,0.0801208277454888,-0.0858281540576346,0.0383903509103371,-0.0969087010050426,-0.426435988272657,1
0.6857956205129245,0.2233852659799559,-2.080130724779271,-0.0114144898265777,4.09011805191512,0.6501766300205275,2.411078021127402,2.6376640698768794,-1.59405740805562,0.2833709096190323,1.07666822979559,1.3416392345008386,2.186068937112221,1.796040286540762,-0.2535649027052675,0.1526960757981911,0.9484897704505426,-2.2626047004721985,0.4388659049924975,0.1628146806260245,0.5409010423050523,0.3547310851015848,-0.9331717450685136,-0.8886060777450814,0.9020166532143248,0.5067908503412548,0.6402921484542125,0.1290102194694782,0.0922284674319866,1
2.6372629932363703,0.6450211805942284,-0.5592986327175951,1.622356923588804,-0.2815395057135884,-0.567886475207861,-1.1218408465947538,-0.3567800013024665,-1.3128324593420249,0.0769114411373938,0.2515774190349655,1.771521044682063,-1.7344322861082924,1.9155532979447043,-0.703412860388696,-0.6021082118095841,-0.1104974838635287,-0.357201029567784,-0.263427653062282,-0.2370409009633833,1.894731891413708,-0.3095294671483513,0.2214622837566568,0.7805163147535433,0.5787089773093947,1.026511892060775,-0.7364283452228794,-0.6366784844678507,0.3872192962658102,1
1.483759481554324,0.8364234724065517,-0.6592770254531355,2.6759810923985574,-0.0633955450697137,-0.4785914780071357,-0.8637806863286517,-0.7838785894005378,-1.1028691345274024,-1.0496371149503658,0.1913105730968603,2.1493773486061505,-1.1914196895584157,0.9947774526595292,-0.5029841975868415,-0.8473354943453996,0.2640724388578166,-0.2899844928362419,-0.2489108750036346,0.2083991869109956,2.2227826921784097,-0.0860202880432057,0.5688814669418308,1.684163038779184,0.8350981011379909,0.4312436576573352,-1.1288898021168208,-0.6485610802874151,0.6407275736080852,1
5.433284055077177,2.326533661402369,1.0979902468263991,-0.3554672778576998,0.2314622328228774,0.1951333017523824,-0.1315014668993612,-1.1599750425611788,-0.3439706996971117,-1.3510143057358188,-1.2055241123737306,-1.1920212722737331,0.4939375760157298,0.5033800427185426,1.921017002156418,0.1359290670125782,0.1622803189324259,-1.258668517169888,1.2453400578048643,-1.281097927277558,0.6130524382341574,-1.786893101920948,0.3435359487512956,0.0778450848516803,-0.3575695721718777,0.8985380599864647,-0.0046728087204513,0.0803506041179403,-0.0043765655489069,1
4.900899643217569,3.002036490092808,0.6974233094573771,-0.8385295398657675,0.1699351591632361,0.3638635016194065,-0.0681546095055557,-1.888870221099442,0.2520896437779913,-1.971541812453504,-2.0024437825221373,-0.3692570426245557,0.5010834742130718,0.1473235556800509,1.0753310314420157,-0.4359805872883046,0.0503727250712581,-1.026971399761339,1.6974853896998163,-0.9549827395974776,0.0716693029996936,-1.950768069014689,0.3388282723644929,-0.2867693288264156,0.0205130825635407,0.9416748210057944,-0.1786643329959903,-0.714040234388763,-0.8617649195308286,1
6.028872882596128,2.354449025535617,0.759728228780796,-0.0910715825577625,-0.8390579929240709,-0.6202666743679341,-0.603941781095664,-0.3687492098989422,-2.0540286013238944,0.0874743449371114,-1.637809741067108,-0.5838539456223718,0.1516064110198019,0.315396502957689,0.5315940605047307,-0.5306460593109769,0.4906448438144736,-0.0355410525070321,0.7863573029308074,-1.7789310976965886,0.4503641034304799,-0.9631078797289196,-0.2803072667297395,-0.460375733130697,0.4745304938521161,0.0188241744593509,0.435702699724141,0.519528676579636,1.1959621713374524,1
3.253897625376621,2.540705155607768,0.1088868290375314,-0.6472662292925562,-1.3421709335753191,-0.5653371859731209,-0.3649633460112618,-1.5808491779726472,-1.9452932807017025,0.1293989360770464,-1.373454613840687,-0.330858991758364,0.0192575399330089,0.1888013542453497,1.6005650169066672,0.2208332760403979,0.0087584745634824,0.221900506823055,0.6873580987064755,-1.1539368414261304,0.4570705922904983,-1.070178635993141,0.7770973837591932,-1.0261337259787475,-0.0050385725674289,0.8526321178857921,0.281898862085203,-0.0449320600574207,0.1985894786060721,1
-1.950888030092548,-1.4358110827094417,-1.1008491373230749,-0.7480200600430436,0.2298936331249473,0.6410970432416597,-0.7822667388441849,-2.158381860544593,-0.7160269246919098,-1.0581887534802157,-1.591678222080513,0.1376971750170359,-0.1621326446958972,0.2021979524409383,1.1588104142733944,-0.3769497886267716,-0.2839944964198334,0.4954932051851585,-0.0422607307016692,-1.6113127735991508,-0.5321308654853842,-0.7692081566318492,0.1101368750983394,-0.5433038726478968,-0.227143881616808,0.3308769864923289,-0.0024441434828429,-0.0398949422916814,1.1987439116677776,1
2.320460238686839,0.5826850565328151,0.4471860972222534,6.396757090858609,-1.0805906288367433,-0.7826666984023446,1.2860668178597865,-1.8969646278224108,-1.5204522752545302,-0.1757704227366054,0.5573272264724672,1.1232116868455262,-1.2812526619251228,0.9350176278184292,-0.7921549721234249,0.3139230139069593,-1.268234751389527,-1.7413732179823194,-1.62603010058785,2.37010778565489,0.4287036896064672,1.690804050075526,-0.918117144659422,0.2927801028340844,0.2219248245406854,1.0264432686261025,-0.0900358940870691,-1.2389074440491237,1.2505127821144555,1
2.15648992273283,-0.4575487570297108,0.4287049440115896,1.1279080013911766,-0.1663231099584217,-1.1906350441687987,0.1608193625156414,-1.2013054360082411,-2.989345140424505,-0.6037164021838571,-0.5158097168277399,0.2365065129979512,-0.9029134198010548,-0.5124944062972346,-0.2643557400239453,1.054720833349531,1.2135264125896756,-0.6122562094239287,-0.295807594064502,1.5927794158934598,0.29211281165287,0.6077573452340448,0.3479706059385202,0.9193131074240016,0.0442955845137278,-0.0505179765741166,-1.1457054095116557,0.077955864720002,0.0695342430478849,1
0.6748455239280999,0.2540489123229106,0.4429706584329764,0.329409756755804,-0.503649372720994,-1.4925756855985275,-0.1752266382581969,-0.4706903356541152,-2.603490534659257,0.3841836737409208,-0.9812365184775268,0.2172694263881616,-1.6270038917468428,-1.1059670601034095,-0.5426635627366304,2.043680483744168,0.8408033415730568,-0.2520248173450959,-0.8593588094323464,0.167991006852737,0.6564565214472458,1.360302672772952,0.864609147791876,-0.7659514884294316,0.4328078948773835,-0.7729668962653263,-0.5102985314035716,0.6793362036351999,-1.0439685822894351,1
0.9068516743564328,-1.620878533131649,0.4800478364235693,-0.5028430003007716,0.3079356673736408,0.5939739346773982,-0.095206311556664,-2.4184461752345485,0.7374763926933053,-1.910899905341712,-1.4531625188360344,-0.6646659573922434,0.3731427553720094,-0.3569576680060148,0.9478884200803248,-1.444929384709556,0.4659659221796324,0.025140836604548,-0.885354146039118,-0.3440309017077512,0.0467933810819925,-0.4977890583931239,-0.7697513222375529,0.2535300152294231,0.426303097161064,0.5166942514159192,0.3234753709181879,0.2228644183444348,0.7327071846899662,1
-0.0763659813997545,-1.9647030102288623,-0.5506093116285273,-0.4197032431919774,0.4927244598761124,0.8116162041914646,1.110333521295875,-2.408448214400812,0.6753449943386733,-0.2399973455279469,-0.1200550396367657,-1.5668071784436275,-1.1869531230535812,1.419716290834956,1.8531788229756905,-0.8409381551401748,0.427195820017679,-0.3178387495623908,-0.7354146125022527,0.1549897583261758,0.4201543372381622,-1.0016190034370624,-0.1700888848275548,0.3359280679122066,0.5635550678739462,-0.0910209218680281,-0.1062285998962805,-0.2809285050541062,-0.7862760020862012,1
-0.8337276198080182,-2.233509177737086,-0.2174656660149122,-0.3095644719060567,0.2113885957366421,0.1976336833094382,0.0204555100886388,-1.927376142647276,-1.5875773380926177,-0.6984822211980037,-1.2631443436453829,-0.8310795424369478,0.2714142601151926,0.4662698776092137,0.8377775922552309,-1.3665905738152389,0.4557177766850045,0.1371575326423435,-0.6025303494518016,0.1948808024708129,0.482832665427113,-0.4365507822724557,-0.1021521285942348,-0.1757281040890005,1.072067892268218,-0.0134907778608968,0.1567688008137464,-0.1868592540420452,-0.3491467745191466,1
-5.494898903183813,-2.4930025655039256,-3.695983425162319,-0.7519360879462306,0.9266024086044172,0.7469662341576099,0.4568732993275869,-1.5721738333803457,-1.6149210800102185,0.9056543759276132,-0.2870039512930425,-0.92080492848831,-1.0996663905643038,2.2039786743516934,0.6362972675220944,-0.4150663764752585,-0.4743695892492099,-0.3547596969762019,0.15741638742617,0.3969474363629712,0.8293387026921407,-0.6956442265700319,-0.6622757513206665,-0.6741511430728483,-0.0521074223184783,-0.4225389510072764,0.313066436122039,0.5600919406276924,-0.3141127401606013,1
-4.95088833404504,-0.7554349648447051,-1.4949644639156243,-0.4311932643421458,1.1812719903745086,-0.0939884235228888,2.074428075112583,-0.1022727893455581,-2.0906320527269955,-0.010933366712744,-0.971267084697574,1.293076377885294,0.9355749146765144,-0.1321900072382038,0.0258156149060129,1.3351128140387782,0.5019079571363824,2.164440727660785,0.9566312629578164,-0.1387691841295878,-0.8962472672566126,-0.0723951998215116,-0.8840197501598096,0.2744519916279541,0.5330259830767378,0.7419258015407073,-0.7033367214325865,-0.2250623420117955,0.4072960109326641,1
-1.9239054616063995,-1.8944671928972563,0.682561350066082,-0.1986605859461239,3.2416427072112683,0.6713422369224936,2.7462576198563338,1.7433892045717596,-0.733420848783888,-1.814516061761915,0.3994195683523601,-0.3111269427377814,3.261749609421822,0.3534006170693182,0.6310059712483611,0.5950525272833895,0.6067572898041848,-1.783804306368124,-0.4972244610370494,-0.1829127665836643,0.6572521556181666,-1.429229082771894,-1.311779490295676,-0.9425044831337804,2.100840062134517,0.5985244226059164,0.5083612204678177,-0.3051649893590161,0.5836098858397585,1
-4.720860059375004,1.069601798928541,0.3270107669270082,-0.3369971306548616,3.3843210436773363,0.6232217935680183,2.5433058526445684,1.4048322477922026,-1.226273153971354,-1.3190279319551894,-0.1443493570422214,1.41114554965834,2.9380237081425604,0.5288484024712667,0.6777554826358935,0.91037032372014,0.5435266718423648,-1.010500653027823,-0.3446913726513929,0.1148763804265559,0.1093720679384741,0.329544932956715,-0.3552405379472105,-1.1820944096252235,1.5997276803300569,0.9633703529299434,-0.3895889422260807,-0.0893905255604786,-0.1132929631523785,1
0.8810886437161878,3.2901964746436745,-9.895086429513356,-2.381601550261072,0.0626850161556345,0.3707528000345832,3.8928934400540407,-2.1501517404241324,-1.096222904320309,-0.1618739623084373,0.3726429059687219,0.5863716128758375,1.5566856077084217,-0.6829109315874631,0.2239826411101816,1.453069296395778,0.2760212242830523,0.7186544359028095,1.2634514730185582,-0.0276779504972377,0.3574829356981753,-0.6728652272521976,1.03124661065267,-0.8874514914518343,0.146932948606986,-0.56185159113869,0.973190919380566,-1.1577490330902396,0.0777781281231158,1
5.295477266453426,-0.1748415198941347,0.0994003103419574,0.1080179282091542,-0.4817080350740862,0.3663206752575383,0.0418811882779681,0.0876053924163356,0.2824200047683948,1.1276168838293368,0.9204154079598004,0.6886646375822075,0.2263438045437862,-0.1027230362823166,1.696535668374011,-0.0865265815155816,-0.475672267476819,0.5105449393770558,0.0572304515059277,0.547287395902049,1.26538337610979,0.077947953678863,-0.3148556721910351,0.1233217105809763,0.0151334437990169,-0.1810372043771328,-1.3135265392462945,0.8621264728665169,0.8025193892510486,1
3.199209552232832,-1.6845443804609768,-0.2200950220003613,-0.0493510928160099,-0.1915086519666621,0.6768472881922437,-0.2548192741745562,-0.1677612523584214,0.25984799097558,1.0030029815481392,0.492503702255252,0.1335968339254598,0.1933477933672928,0.666214315065521,1.056119478036916,-0.7236043660229803,-0.9511657879212064,0.1054827245580549,0.2620137389925976,0.0577323092649453,0.669818668591712,-0.2733157768671985,-1.171614906208737,-0.1175996351974341,0.2917163094601208,-0.5614840687490772,-0.7613778306377822,0.1366818297369752,0.6375179098491337,1
4.95294040661829,-0.988224112853621,0.5183997637453887,0.1732932830249886,-0.4258812253096746,0.3064368567638221,-0.0493956549484064,0.2865665674029588,0.7492160856927186,1.9968527160874687,2.1081614773139186,-0.6270374767143303,-0.9314528164208687,1.461261173820185,2.7062699801391976,0.4067772319365587,-0.5662736646780012,-0.3046293415125083,0.0564105090004814,0.1632169878115556,1.5525881055513886,-0.531854121934734,-0.4869225658082495,0.5090817917264976,0.0795317232437941,-0.1620031840097247,-0.5294253583596275,-0.0593960999836515,-0.0647067003946164,1
5.471362861722624,-0.5173347975144464,0.676998354277494,0.1213227624329197,-0.2492533103456003,-0.334943826642573,0.1477127846625529,-0.0396558447134517,-0.6562605704315053,1.2935419971288626,0.0925456960984015,-0.7121168380019304,-1.869410934026748,-0.0495874833382463,1.084582890959636,-0.3995925012631837,-1.420963164452113,0.003279963824889,-0.5322438791445505,0.0809378607407622,-1.0073738666310077,-0.3194514705013493,-0.0034466571401846,-0.5491479299868914,-0.9956330561904612,0.3512573225375667,0.3026107728009543,0.4646352225395419,0.5096438391413658,1
-1.7551953765468569,3.394077554546372,0.6924293785195246,-0.2138073815524804,-1.6265752126358524,-2.41952766428746,0.030834926674006,0.6268842757547762,-1.4805313553939994,-0.1796535453116894,-0.8981543544794526,-0.6077295768192256,-1.58432433421076,-1.3489966274880694,0.8286653705714617,0.7816561326375784,0.7340576663644277,-0.600646126195363,-0.4148201426525872,-0.73433446049203,0.7082746469200142,0.2184610017180319,-0.1480152108546931,0.0511808760733152,0.6385594409541585,0.6182245266490048,-0.7425960853498307,0.6954849855886661,0.3277309856999789,1
4.440601813570408,-0.3978028106923046,-0.7632408143510742,-0.2984862103021424,0.8204509606991235,-0.0800753049900232,2.039575138671321,-0.0131982862456124,-0.3628030552515299,1.0320737452518725,-0.048677233290258,0.0844067203331346,-2.3130915286971643,-0.4084460554164326,0.5032642487430551,-0.4743648932958844,-1.093765777142547,1.055143087893479,-0.8093490626985662,-0.0089552320326355,-0.8790871463645167,-1.0282443152876362,0.7643759432416121,0.2062796693724599,-0.0951202869329134,-0.2233311705681582,-0.5000495704225341,0.1432917375063858,-1.2400004139175482,1
-4.107028539508637,1.3222470201972425,-9.621710468022904,-1.6836622458255504,1.0721851108428502,0.2359995481508601,4.250616472139992,-0.8914232531211032,-2.8607780657867607,-0.0102819174601262,-0.7290409953069905,-0.3062329419404793,1.3130481127642584,-1.9252272228378216,1.147093162367199,-0.0829861503826334,-1.1658718881897032,-0.2106363154475763,-0.5224092198854772,0.999159144983086,0.9492804384546304,-0.8290713344679228,0.1613775517111662,-1.4278612115538427,0.3324797736038296,-0.6850603545470466,0.6597418901891254,-0.4326693385617782,0.7906182824384292,1
-4.040897692118367,-3.2318715619810257,2.4081069056738182,0.2833312344166177,0.7656520025509829,2.932585297441769,0.5808040080183906,0.1145236569481528,-0.2207356936942301,1.1528681922065327,2.184165774461189,-1.217442162030815,-2.81510548046624,1.3634328096044075,1.0061354018675528,1.29321214730069,0.6162473280790749,-0.4835405589680587,0.9836315091833728,0.2433962753351959,0.3432737494184412,-0.1803449274179647,1.2250557212662296,0.2344947878925536,0.7824856491148765,-0.4073201278614991,1.3231923875779976,0.0352697564642995,-0.7852355106242074,1
-1.527133641577968,-3.102868550798048,-1.8018839247567529,-0.4702292301856789,0.7367497277465764,1.118935993534416,0.6325447606191226,-1.707917958858977,0.0393139387862053,0.9241402168289198,-0.3691669600405022,-0.166233034860559,-1.6348608448802973,1.767424329667999,-0.4995546608753251,0.9251377888957376,-0.1185536449141549,0.8372732233926609,-1.5535904909063063,-1.4747339299783095,-0.8432184819589222,0.7310562752376834,1.5991825190165394,-1.5143533506888056,-0.4603748708803932,-0.3453607615894845,0.417221940124832,-0.619288953814257,0.538233088563217,1
3.901909206512504,-0.9434236056502638,0.9102485389086696,0.8634651516793472,0.1071524090514808,-0.8267735838187764,0.1889392768071614,-0.9465183791721362,-1.580675426683213,0.0867062590385824,0.0174009975240012,-1.1342421273756025,-2.021947674838873,0.7244560290928941,-0.7311407671920369,0.5051331708642889,2.2454882039480544,-1.3157341231972424,-1.391877757800045,1.9631842394861965,-0.3494374884876042,-0.6772120064769765,-1.4071653497592749,-0.4038156889742464,0.1725681057287492,0.0261810664602855,1.1109892058642523,-0.3477493166696098,-1.3296694741415198,1
2.7656024872031155,-0.5298594541433619,-0.4736540029657278,0.3017949149620761,0.0645604455673872,-0.4231701753121596,-0.2348952807727124,-0.924125948513813,-2.7298632330678148,-0.4180937294317056,-1.113731088113965,-1.820071087013365,0.1017961608976703,-0.3290133893406203,0.4333362890584774,1.0563429267534388,0.66586006459909,-0.787345888891663,-0.061821549436068,0.4371673791671646,-0.694867552181388,1.076588293073211,-0.794884378190289,1.3862096187405974,0.0799992533484475,-0.11867090721703,0.4326285888971223,-0.0191745190978174,-0.4095291303485512,1
4.603104706284744,-0.8356857559912736,0.6190062580104443,0.5022396417925512,0.1445495026701593,-0.8048111171744424,1.5478253881830069,-0.5073581675267836,-1.4632607370789077,1.224214519590565,0.2899547490370855,-1.7123739749965596,-2.0479282669629786,0.9835634342783351,0.3817099516295026,0.9129947695199806,0.9485245975709892,-0.4962797734353837,-1.375744614589186,0.9927955072024452,-0.9359052027405684,0.2189149111535246,-0.6129605614750168,-0.1323382648194017,0.9510242603294105,0.7622595281667239,0.6231630874962284,-0.2342674947782866,-1.197015396323791,1
3.9155301568536736,-0.5750286550104508,-0.5816966639671555,-0.3559767491756188,-0.3953391987175867,0.4384914396526504,-1.3918589533273569,-1.511552368276365,-0.5691817458760718,-0.1144673508822911,-0.6992217772825848,0.6460460758027312,0.0013521703037337,0.0489890215254627,0.9728230946261502,-0.3762461566899374,-0.0923516845204491,0.301674323678684,-1.1243520477542146,-0.7264345615724862,0.6805772831478815,-0.2060385981992977,0.2304319047002678,0.0776534530282191,0.1460598888738871,0.4261142451669075,0.1565310665833253,0.8195488243811312,0.7532891764687262,1
2.257339093402758,-1.143953242861348,0.6779278959544731,-0.2843864937595584,0.7199245426146961,1.302977230486076,-1.695489650555961,-2.2473352547748093,1.459599309627848,-1.7854778612871782,-0.9555058097629489,0.7064099962147148,0.0467900836910448,-0.4109594242510128,1.4175217186051472,-0.654772622845984,-0.4304339649436663,-0.1089969367463627,-0.245495813135644,-0.1930354896873084,0.2585942535582713,-0.1055638440530591,0.3239070149753981,0.7503069692687273,0.0009609410593778,-0.0405716472121985,-0.0052193297264195,0.328669523595565,0.2926197739148209,1
3.1605276757239094,-1.243821926668262,0.9960955117590262,0.1515371688383942,0.5216685372576639,-0.0622577437417478,-1.2586311063597782,-1.4337321324101782,-2.379424445223464,-0.4030277520802711,-2.233341764562114,1.2804127234801568,-0.3962444555647689,0.0893769271180313,-0.6461786701349178,-1.4373243529491675,0.2529711764188945,0.6466202889817884,0.4554871528645633,0.0249961531554388,0.4173789562285397,0.0332305307962339,0.5594011484258848,-0.5132210776833587,0.140339666872596,-0.1313192299558111,-0.1334441148200782,0.3847952547966387,0.6933159775079165,1
8.658073931216176,3.753536262647265,-0.3221496646170027,0.0097143705665181,2.050832923280106,0.3603635026051635,-1.512595906298115,2.6288258050070588,-1.116886337939596,-2.8719078969754226,-0.8678477465869616,-3.146493552759546,1.3262614786358269,0.288702916499965,-2.7908043052849183,-1.130941153028426,0.5663102965455251,-1.6981275569054155,-2.0768754353532093,0.719770863959827,0.5943939523612016,-1.5503498696053168,-0.0582864146589873,-2.2204350891934994,-0.2058831101465511,-0.1026278673996587,-0.4509027669216009,0.3094933616169167,-0.6925658718315734,1
3.633363060259505,0.3335477053999838,-0.7367147313517254,-0.486192327664294,0.7566710910080001,0.4435565332581698,-0.5696736055929725,-1.7111158894779588,2.024559399344057,-1.3411627983979162,-0.2397759097928507,-0.1546455921557823,-1.9603467746596337,-1.175749168803491,0.4678921116730425,-1.1042821504392624,-0.3196138067189344,-1.4470823487308229,0.3630700517229773,0.7037424093714051,-0.8048151899015993,-0.5819803876170484,0.1223717776324957,-0.069135666477949,-1.213750542531027,-0.3196206098968018,0.5052674128583035,-0.1196749538437934,0.1999243669823463,1
-1.6279479564290278,-0.8561135177060067,-0.7047088657181566,0.4195350680748462,0.5203060697748191,-1.2000710768181084,-0.6288930438528483,-0.0979965033755349,-2.962764965637368,-0.6651104942538989,-0.8632982475833595,-0.4993665112889232,-1.246717523087736,-0.2395575799562668,0.3189433089075733,-0.8209841567123604,0.4517145937394844,-1.2143326253037636,0.4778753270286768,0.6531585190076168,0.0028700454492337,-0.1849174734252754,0.4596762760727257,0.0519757807008485,-0.18222930552044,0.5324505603526821,-0.4972044584383256,-0.377345507187446,0.4866220355899675,1
-2.889774978399208,-3.3585229173016056,-1.5792538677622605,-0.1008143401662971,0.8562001178853212,0.2787383374727989,-0.041154204091679,-0.5906830729505351,-0.7039109755289001,0.3905764624017809,0.152896485343247,-0.6579516752544502,-1.2164216937984915,1.84429182007517,0.353775410552887,-1.5472379166965415,0.5665697688196766,0.2215328077119902,-0.2252293679173183,0.1740041822756784,-0.4959511443132862,-0.4020280728726063,-0.3468538938001669,-0.6079674941443058,-0.2399226176371714,0.2613064056856392,0.2594001700101011,-0.1299824763398303,0.0836157974336907,1
-0.2293748976111437,-1.1863865906162507,-2.177549804330298,-0.3912167776728728,-0.6903649997117695,-0.0753862228605852,0.6663573179690525,-0.9938828946341204,-0.4400862882352019,0.1528566691287972,-0.5181157163090684,-0.8956346633171631,-0.0633881403390713,0.6639585499703158,-0.1108251579268982,-2.0017125295154896,-0.1733826751504847,0.5548515000358322,0.521840669657594,0.6493016746397716,-0.1673333074018503,-0.5929893054016048,0.1058573855950175,0.1379982757879941,0.7234740802473884,-0.2050595861550294,0.1645611596849854,0.2752753776709186,0.166788994572883,1
-4.0658316275455535,-3.6101467977183095,-1.0232453976926774,0.2908127073216632,0.2540352991208695,-0.2815880036728167,-0.7210389155854674,0.1996276944465754,-1.38857514280447,0.2290515039313836,-0.1088208728417343,-0.0017288196038475,-1.253084434506459,1.953530711008504,-0.0999627103182561,-1.0222781476196918,0.3361378459999751,0.2115979110050186,-0.965972000784162,-0.6115818716126719,-0.2476299735871267,-0.4436932455555827,0.1412087821719948,-0.6537476453288249,-0.3073871985726463,1.2545936702500635,-0.5142972270496617,0.4539562117330304,0.0895972187836963,1
5.115425314325539,1.8844333898235848,1.4318393964256206,-0.3113074235654997,0.5296924108098378,-1.0489624404462643,-0.9382718295473071,-1.2061298625213428,0.8353519832282761,0.5195774217838114,-0.0348547221042439,1.2526376480097368,-0.0976413657629287,-1.0521555853872442,0.2199664147138255,-1.4168106234109878,0.3079071666992291,0.4432932926354093,1.1483724750872073,0.0247034698387134,0.1503499387826162,1.2961673647925325,1.257382463681028,0.0515762080182428,0.6836161626417829,0.4216194434977862,-1.6690218922274993,0.4172882108243444,-1.5587980682931548,1
-3.18760423833922,-1.4829082187979072,0.4468007295685537,-0.0676144119590766,1.52005486298509,-0.4685231791311873,-0.2423404100291312,-0.7844235107986913,0.662249625212986,0.1069301215949742,-0.217591786565081,-0.5944425106461151,-2.0375158355789744,0.9481369691747262,-0.4509903891815263,-1.554286730132944,0.3179147675507385,0.214539537532647,1.0380303645051925,-0.8860353820079718,-0.2583950098203657,0.7278468513733649,0.1888158777967878,-0.6846945806317208,0.2725120923007253,-0.2886292266817762,-0.2518313390293726,0.1220930484482459,-0.10192077413617,1
2.340664518022384,-0.1275459798284752,1.658519374158968,-0.0003958639886561,0.1479490664523606,-0.992688645940103,-1.534791530768031,-1.248657385080443,-0.4716473301574166,0.8340189880566939,-0.5278423192536688,1.012050085725668,-0.0096834202684919,-0.6725448687380376,0.4134354419123536,-1.3715866465120148,-0.3161710531153225,1.0834526681735792,0.3767127722246302,-0.2463580642124531,-0.1771169956368952,2.2416118004962664,0.9069503784645658,-0.5602230515889208,0.2726812603191575,1.033725359640865,-0.6547517093196348,0.0389764768835542,-0.5874939518170191,1
-1.9128046223546824,-2.6967028269147484,0.9373833596441916,-0.3126141501595675,1.0888986096839226,-0.2408825689585329,-1.1688534545865177,-1.4187693829964014,-0.365209759796808,-0.6773235115574523,-0.790955075771212,-0.0326249290377177,-0.2811448474761487,-0.576342826391968,-0.5328224662339134,-1.945385857479929,0.2409141725198929,0.4054269005782404,0.4690809447745364,-0.2298520531466756,0.148573275576204,0.1676858919657823,0.466987741351877,-1.1610144150142976,0.073361150530313,-0.5820285780825183,0.5216653404697996,-0.4061201396563515,0.2086505068872431,1
1.3197817064139925,4.939627594935256,1.9856595517063784,0.0640523520590333,-1.364634591055992,-0.1977547866351391,1.0644231472939345,0.5193152189559008,2.4272376118637613,1.0928707778043214,1.2866910397925335,-0.3084008164191172,-0.4393152044953106,1.2220615470222982,1.2571249949497576,-0.9784777955782848,-1.0107595422086664,0.0407791953670984,0.2672090846046478,0.7238450176557387,0.3107938398408134,0.0545547091279377,-0.0187765088986535,0.2105295233248876,0.5652845246411136,-0.2235458661501231,0.232503699248031,0.7817530827242809,0.3271594341901425,1
2.657748119691048,-1.5370525356053697,0.9054223345461434,-0.2043731725871498,0.2446295273671888,0.0366252739547533,-0.1095442324785508,-0.4462110007714088,0.5276203163382615,0.1198764091541211,0.089939739936856,-0.1544651048695118,-0.7112457872372091,0.9863852194530224,0.1467370186039883,-1.8799422572806408,0.045415143366559,0.2221457314811698,0.2364948326181251,-0.1912528524506024,-0.5434584077957549,-0.1571567154196195,0.5853337884665925,-0.7525760145445657,0.1742762298410182,0.3538971865916517,-0.5195806391328407,-1.0112548249861868,-1.1817478480593304,1
-0.2379251981147438,-1.7334595282152931,-1.6387319189932308,-0.5201929419346905,-0.1064874344994732,0.3134664257251351,-0.3451349589940194,-1.2402616309957053,0.451400124973426,-0.3062140858260551,0.1296534729600804,-0.1598173011975092,-0.3833465250158537,-0.3283697347478047,0.4220333568262286,-1.2462112318549003,0.6055139859790035,0.2862977899043158,-0.5122458260320778,-0.2196661127500832,0.3148480790009602,-0.2566013935497012,0.1177898179821486,-1.466868684448231,-0.9713149529384952,-0.7254868992525068,0.8085326992703651,-0.3815398363890201,0.0926029355376177,1
4.405310898372678,-1.0409717237616842,0.4729396796969201,0.0983924489304459,-0.8558486770083256,0.3148194421642249,0.8367907571754188,-1.4950294437093254,0.89554850659677,0.0923277545508185,-0.6658209680828227,-0.4518145966920773,0.7410813499807186,0.3186336806554045,-0.6247185605060322,-0.8025373751749967,0.1232588062896597,0.4145570798820115,0.42218968406557,0.716590832603962,-1.333226115474909,0.3428551895927943,0.3828938284475524,0.4259847680397618,0.3349800317936472,-0.0401779368299154,0.1818415416370968,-0.0348321242177646,0.474580611395367,1
3.503188371104616,-0.8247072146682928,0.4453591806971893,0.253380680353591,-1.253818382157889,-0.3074031235427356,0.0286002101212722,-1.2257111286743847,-0.7424727545662739,0.3193211447948057,-0.4325613191227984,0.0527947959607722,0.9475941996243316,-0.1558036428629007,0.1491861302247141,0.0555601539789356,0.8798385465036845,0.5019465849674859,0.3624710574263566,0.924375440255494,-0.435723211927141,0.5422163432288452,0.9665263906516424,-0.0274581484307307,0.3519481492712631,0.1114176447323879,0.2352429503482105,-0.6885632152405922,0.0136170013960901,1
-0.0513726675222712,-0.92061929157899,1.542967099997656,-0.1237640654018148,-0.8898108040273149,-0.5034245756480238,0.3686622293917331,-1.395312734658695,-0.1131758286801017,-1.0271012538142437,-1.4783807467647176,-0.5791392834036883,0.9650172556031984,-0.4220947872049794,-0.7073927534073681,-0.3779323595493928,0.3622664066301818,0.315903345181122,1.966687331881106,0.8419769285051537,-0.7497694757248502,0.1447231462526072,0.294210110754423,0.4391706779853244,0.6890453509286563,-0.1063352409174036,0.0387322399735579,-0.4805879061601789,0.3090243368771943,1
-1.9267262119630015,-1.4835233716123133,0.5798197965717689,-0.7357575470458849,0.1011798198808289,-0.024993729423882,-0.7387774169796952,-0.9310221264798056,0.7265501862584023,-1.806349123598344,-1.4361187170703824,-0.4508282924442061,-0.789681362051969,-1.497029099754266,0.231002386352445,0.1154135565904281,-1.306815350186207,-1.3792396083986271,-0.6581666655008229,0.6019614498577253,1.0746878652278835,-0.5795815123280033,-0.974290035744296,0.5446385515752076,-0.1832914191248878,0.0453787169074851,-0.0330942605018182,-0.4321817544853761,-0.596367528473456,1
-6.195660915696753,-2.798643759576482,0.1946375276554156,-0.8462297020906003,0.4000064140691342,-0.2623372498344068,-0.5136723893397812,-0.609806737137341,0.9572903694281866,-1.464818369025423,-0.9837282580632136,0.0981820750899706,-1.6867331328715058,-1.4728957559762048,-0.0179306634298888,0.0865294282541972,-1.1682024689387926,-1.0048724869356236,-0.7249109174634737,0.2884642128345439,0.4455937863484725,-0.5135498855737869,-0.8807731032918457,-0.5964978731988848,0.170702693380817,-0.3871368838545734,-0.521415996585026,0.7315640650132484,-0.205587572978947,1
-1.0615132706451658,-0.0171447256112463,2.274854441111442,-0.55706455943858,-1.0016482657939405,-0.7382803354087504,-0.7907575779821012,-0.1066850655204318,0.6292644654371199,-0.868846474264863,-1.1124586957362197,0.5397076243427128,-0.6126023032494562,-1.87160327299246,-0.1111093571851581,0.0636935873540706,-2.020010166671097,-0.1479977930767208,-1.205857229971704,0.6126918127025041,0.7677311262071806,-0.0400519024598947,-0.8963312654622694,0.0959185962966372,0.7467065320892328,0.637230859096119,-0.6232210976764341,0.4130163622962435,1.3605329714189531,1
-1.5621968949217362,1.7911051761622894,1.9502975456787,-0.5653755363361194,-1.891517179317996,-0.4675318302398717,-0.0253435772497672,-1.2238297705708518,1.116378177883781,-0.6186457626350699,-1.872664516810822,1.3903777730657123,0.3644091099582848,-1.0660649422809132,-0.6442232405380779,1.8203796531984195,-1.1844356241833702,0.0171564914326921,-0.1850522542818005,0.168598848202736,1.0114852359976771,0.3306194662446698,1.536188579489589,-0.2275892515047132,0.115015463970491,0.4521523949426828,1.4805832205033616,0.6888891357937823,0.1462817601253939,1
5.547079761631798,1.02193234393982,1.1412626491414766,0.3097287736790406,0.8445600334079041,0.3724583232596801,1.1524768814913842,-1.1183696264153342,0.8222876900860063,0.4803421819983506,-0.6045481347265721,0.7853195145823413,-0.7201781699311769,0.8055663147090167,-0.3970043643061791,0.3912252184701058,0.0639503629422075,0.120248264036067,0.6904972365062079,0.3805226971303005,-0.6455326084681046,0.3600695072299045,1.1846680919325032,-0.793063886594243,-0.7293653719113148,0.076434966239224,0.715451175400609,0.379194767232331,0.1823948643637591,1
4.424476873368434,1.9837322473454693,0.6379960622604309,0.1334068461417737,1.7274903565842554,0.3609747195831381,3.2626205283334984,-0.2091390493598827,0.6718517747632724,0.4640833641982138,-0.5452666684564013,1.1065800832881925,-0.3045614047870182,0.3337753302741946,-0.2051423080300299,0.9279087287597396,-0.4437614346972637,0.9710510594084968,0.6319017073310403,0.3130090955071056,0.0432304434994916,-0.3016431787426941,0.2041293830125615,-0.3043898888138426,-0.0672667587358865,0.565966385497484,1.5623282533935088,-0.2933460389924343,-0.0213650596067895,1
-1.5238560233301293,-2.9905952657496457,2.0043224289254757,0.6773692479472347,0.3224410181249167,-0.8265058933201678,1.7239141548632992,0.195341952408875,-0.1847816002168998,-0.1025059487936293,-0.5682661776608394,1.229335895586811,-0.1242711591947281,-0.8635855416174517,-0.7771857654745078,0.5773946677669174,0.9027262558412192,0.6386890536354236,0.3240787676428823,1.0287359628286437,1.1767123735308227,0.4658973949833225,-0.3298712536960151,0.5129733367170436,-0.2763020048562942,0.0254580898074619,0.3045198439902596,0.3303001333780712,0.3287553389403508,1
-1.620461555505771,-2.9345030507455547,0.4866134656502272,-0.0407960632497121,0.8037884504992547,-0.0955613896876177,1.925460956787384,-0.3304030209178585,0.2605449219707595,-0.6811885413744871,-0.2338320220337055,1.4264134610875234,0.5229957342780748,-1.5571378030888627,0.0803293051544519,1.080714389147729,0.9137045459891664,1.1974382724334418,-0.0059520165398262,0.4080573148571617,0.7061953247202722,-0.067541045971191,-0.1383620989604637,0.2614504804735567,-0.3556399378546354,-0.0539873330143809,0.1805963866609706,-0.3487591207911338,-0.5080390659093722,1
-1.7144618441605204,-1.8757570615255887,0.099778316537818,-0.1615744305967879,0.0815355210691661,-0.402877508330318,2.487583766743432,0.382037945322368,-0.198720911290767,0.4558746270661604,0.0242646288609868,0.5663197739585295,0.9902308028168,-1.0845687687656047,0.5000230953979138,1.354506596661197,-0.2897373332122922,0.8532896459040764,1.342712657016282,0.0621842893806251,0.6866663909267068,-0.0860540398264186,-1.6548441722208018,-0.4417750411345952,0.6765786976827336,-0.205118154333651,1.121430079334564,-1.220977374579997,-0.2394636343895075,1
-4.34629313057401,2.929809423765329,2.359259525087881,-0.629458687418498,-0.8444955709635984,-0.9675428283126464,0.9712422924428912,-0.5288636259290204,-0.1832603326799925,-0.7751750581180017,-1.5666521031139384,-0.0534432401703298,-0.2538800765789308,0.3060114143805813,0.442826676599966,-0.4170309012668661,-0.8626620025323146,0.9056462462686444,1.161806064820967,0.0972062447283859,-0.2976038197142918,-0.9905840125519388,0.6591954459721797,-0.2068989394516804,0.4272241739223613,1.5834773643682154,-0.9075701131531544,1.1921396982865795,0.5828859273753253,1
-7.175182007769407,10.618128317619831,5.9801064594977404,-0.0169649182593134,1.9015502135436329,1.3568097071723624,2.673494409062341,-1.6548463246718723,-1.650844095803842,-1.4299309030101908,-0.993576281407066,-0.0004373725246873,2.4010419060481025,1.6908551816027315,1.609006620355404,-2.058232378965314,0.9130871969078987,0.4677221156165468,-1.1025577459567062,2.229926028317525,-0.7598899984284148,-0.5823521793054396,-0.2838561198321789,-0.6980670418969908,-0.8632350653894533,-1.70438292036823,0.2051400807552979,0.9541172910082268,-0.770158281876328,1
-9.231850975301446,7.755618044535454,2.080705469032185,-0.2906447038617974,-0.5463240084826949,0.2008787890348583,-2.317069149666126,-0.6539454855151408,-1.148330429224337,0.6077921686294288,1.0093251954615534,1.4156701123191395,-0.4500216336422823,2.2785787613744537,1.658031296570395,0.4929147841929261,0.9764563438765296,0.2794039346894819,-0.7849893890527874,0.95582536046417,-0.0129754497819291,0.1472879016556038,-0.5336538280842426,-1.3087247186197306,0.2657150228549113,-0.0972950330460083,-0.544626711275475,-0.8478210671218974,-0.5822186079068058,1
-7.405188936256362,5.49390031199829,4.798437525347669,0.3673125740325985,2.588575636916536,0.2956091001393188,-0.9781504408773868,0.8972614197742247,-0.5505923164788681,-0.8746678878935878,0.556079129350392,2.82497449392558,0.4048099771786794,0.6750945946184433,2.574946963702237,0.2351511475602086,0.9941766700018588,0.1369456093226466,-0.151709414903366,0.3757704549855063,0.2254081771635044,0.82404132378917,-0.8742765763057211,-0.7444237411786201,1.0312322295908587,0.525666484297296,-0.2445786863898888,-0.9489726019989188,0.3539395664726295,1
-1.5812096151757156,-3.020600390594756,0.1822372331343821,-0.6322990145792753,0.2498068739077856,0.2387385704063955,0.5289520437310308,-2.253769193348704,1.1949086165344294,-1.7737223499474408,-0.7460005731156066,-0.8673799267387249,-0.0808291499999205,-0.3992963401920524,0.4953029417147171,-1.8749777949103053,0.5154314159272759,-0.1306047120653444,1.0446986940653007,1.0915739022945137,0.1287153789820371,-1.008556669954884,-0.7379982029435868,-0.1631869380368826,0.8172584867939388,-0.3914215662554589,-0.961592736725212,-0.4442287260402515,-1.2738638548568448,1
-1.903000339087827,-2.7940359273083533,-1.8812629147718936,-0.2624421545981819,1.0399370983987417,0.4478842144743769,0.9373370377461712,-1.3602239971196504,-0.3348361595686212,0.6759918203561543,0.7197641008300253,-0.6904189045787185,-1.7056864212017735,0.5319239411535338,1.674167776601864,-0.331824452917608,0.4542588019356924,0.6086357399449511,0.0602559191394237,-0.2830489501377871,1.2502106108759374,0.1675090869198338,0.8808849757035511,-0.4526846918829576,-0.7959133771577219,-1.683611904690007,-0.3364927620236934,0.4145732487180438,0.2811371701488721,1
-0.764780601752816,-2.8886349327748984,0.3638924860460154,-0.1553209679803253,0.7642037755793671,0.7434546626284849,0.1041730733593414,-1.2868221036294656,1.6832057241877365,0.1904005766511393,0.6934603300784009,-0.5115110191570852,-1.8903778209843232,0.6328890955125218,1.8392057486783573,-0.7223233584117896,-0.4800877087687084,0.1707865007394477,0.4502007622941207,-0.2977762208622228,0.4679123443713806,0.6055019081877228,0.3730896064903581,-0.4496043810111889,0.1625997426576406,-0.8379199024803352,0.0015163441625904,-0.4784584485141551,-0.8006290993590709,1
1.9868668124508524,-1.6865212933600882,-0.9232594575354408,-0.3976412396680989,-0.8748669195526906,0.2792386708751116,0.3638477648924059,-1.14913923563192,-0.3243334355766178,0.3833037343062077,0.5136468258918279,-0.9906844083033306,-0.0042598020377398,0.3597108221411415,1.343181512488642,-0.5331099243892414,0.1306623274742529,0.2965725941934953,-0.4491785228282335,0.3617066850196162,0.9565925088190728,-1.175733459572964,-0.3033442822747887,-0.3389619078846233,0.0385710163991658,-0.5357131902790278,-0.3487082079360577,0.0180872010905816,-0.6219687617990535,1
-2.137874422605909,3.7136465334720654,4.619810463166321,-0.0569100344845081,-1.2841298224658166,-1.0413171248569717,-1.6477956709867825,-0.4419037115838998,-1.0836508610556177,-0.3313726647765961,-1.7589014118185209,0.7494207600352157,-0.5798760657690843,0.5866579283841348,0.1015739212340647,-0.3108366592413377,-0.328125174340702,-0.0470767685819503,0.7195613962788856,-0.7907305435935564,0.6385541312667266,-0.3253626761870418,-0.0144396146097383,-0.2781077905887515,1.344606613160191,0.3517299064090503,0.1946458131014475,0.0474448344389589,0.243918630198198,1
-7.412871488723241,6.412844397610456,3.4132519765874654,-0.6658638225679127,-0.9183994380750355,0.2794037316309219,-1.1621274647387905,-1.715448492738087,-0.8433921861141505,-0.2453774216426379,-1.846902845894633,1.770089200986588,-0.0807301986945043,1.013019474348341,0.0630040428097647,-0.5927290830198929,-0.7104590112555288,1.1186589665454605,-0.2246978364771182,0.6034308616603336,-0.2339179899105045,-0.1765097997521959,0.3221312327021683,-0.1439369091432554,0.290348406235755,-0.9598477174405684,0.012988050689492,0.4449157736451145,0.1530752393992523,1
-4.424271689977196,5.919381061841654,2.9139775152158283,-0.5212028082412673,-1.532364596269676,-0.2323148781912115,-0.987628640115257,-1.0824494752702123,0.0331541147718872,-0.4264830822692915,-1.4448679380217928,0.3825883840195368,-0.3174581774509362,1.0925810346037097,0.2636925441417642,-0.3660602969437762,-0.298994294277731,0.3391080383376875,-0.0670374720921945,-0.1702304803831764,0.0576257478689471,-0.5081315442354468,-0.2002563286859503,-0.0773055157951765,1.3227656866806148,-0.3133741350757059,-0.0483435523044398,0.3596018603356068,-0.6847874579197468,1
1.0680096326587654,-0.6444474200576713,0.9389627046250396,2.732067602831994,0.7712501391856192,-0.5999115518214593,-2.6635331229072827,0.2863299972780036,-2.414613460776251,0.6606878721777657,1.012453831008474,0.728513295555622,-1.3141224069793005,-0.1968988089912975,0.1943472098435024,-0.8057754117448123,-0.8278159234747376,-0.365099233609055,-0.7372657904386759,-0.2041185154112746,0.2864939466271067,0.2992636269104866,-0.4959114426951866,0.9715889743961926,1.2727290640739766,-1.4772588393431385,-0.2803768934960834,-0.6790297228647465,1.4522624254866787,1
1.5324611198113278,0.9836455610402648,0.2973064259890026,0.0060544644940828,-0.3090435032057453,-0.9206741863709016,-2.110771877172904,1.1530359742237954,-0.2656742122542176,0.045650708506865,-0.2839111027248872,0.8430498681368503,-2.051893505575741,-0.8942625869437061,-0.4301553682498869,0.0306938856778879,-0.6641965633711798,-0.2572394547447167,-0.7632480894180044,-0.5612915359416288,0.343910208290108,0.0402127031954906,0.302036666204077,-0.0177413361525302,1.772016575068535,-0.4643091995643591,-0.1091983471044205,-0.2541293806921396,1.1245245946639548,1
5.657733833092014,2.2129804391471497,1.0066698173840372,-0.8038771606127255,2.648838271449871,0.1094294111708185,2.584444586671454,-1.068841566315033,2.3161915948411864,0.9528808745431484,-0.4354323083893756,-0.0391290313653687,-0.2823893780842965,-0.6745274113531193,-0.0031857276159231,-1.2843012942766634,-0.9883829455691692,1.0941191404284658,0.0882626073409921,-1.886468761055592,0.3409856806012045,0.5896654617915864,-1.6500004006259734,0.4027457143718598,0.2940622600757718,-0.2711477688415395,-0.5578736617228476,0.7672484301304132,-1.490902651302016,1
6.875385045204047,3.725853552201293,1.88756010057484,-0.6723825843854127,3.346691262594957,0.6514033038837505,4.190720088393034,-0.0537235323120952,0.9578055650472932,1.3505315970160023,-0.3674846194354115,-0.90429374117091,0.8873706525931456,-0.8121858584799232,-0.0713614020345381,-1.8819617511561395,-0.8484910470418532,-0.0473047404823992,-0.4582665916703651,-2.331325940152859,1.2139545771747722,0.4730640374912041,-0.6832142686454036,-0.4890633170716107,1.140420929671355,-0.5675082802776387,-0.0488461743859956,0.5192639975253175,-0.3872840429464059,1
2.8393616582139405,-0.505428709795964,-0.7940671706910054,-1.0230642148427156,0.7164294496260334,0.9100332450521228,0.5299205775283979,-1.4233946753005668,1.698733733128842,1.0506217665091129,-0.1526341269616043,-0.4758907864033505,-0.9069598466980944,1.1102430150897762,0.5356757944835452,-1.3089008135171454,-1.1908882502241236,0.1523787057937598,-0.8865327083326903,-1.8258340273213245,0.0876241348040974,1.247395445917841,-1.4187246698314158,-0.1519182400266648,-0.1253535522589254,-0.1970174692312716,-0.2804482703183441,0.2211132733816135,-0.3780064243906279,1
-3.713972523930778,-3.174736421585429,-0.4883625892208973,-0.4085821436786497,-0.6834231350526778,0.1615250808545905,-0.2482580116412358,-0.0201493330153557,-0.1727331469753597,0.1314227961118466,-1.0197890997323469,0.210858090103895,0.8698718533184989,0.160624246774998,-1.0311710130745078,1.1166501117071046,-0.8456750641340189,-0.2747878538957714,0.3144131008589499,-0.547585876875234,0.311595270876635,-0.0617285348707393,-1.0226908243453627,-0.5040071755075363,1.0678630049096496,-0.8327608363053279,-0.0186346579570302,0.5844471091058447,0.0484783188167873,1
-5.878605195046151,-2.575230024096536,0.6956480757491866,-0.2546974235491478,-0.0299989465775605,0.0489731603555363,-0.5567466009077536,0.0235659559575648,-1.074017449525989,0.6862894764722425,-1.2147783552820826,-0.1116952878874188,0.9101206808158162,0.2956773328120834,-1.3583447166055544,1.747927770474225,-1.4190483753419876,-0.0645493126465516,0.0212498561954738,-1.3964034197237063,1.0177487638844231,0.2110415633706523,-0.7693395279863692,-0.2485710617141498,0.6399578352517367,-1.1294649435685715,0.2507922599687432,0.3192881104907068,0.190836149850396,1
-7.185248744798154,-3.507569445767932,1.0611426320344544,-0.2396837341447024,-0.4332651373354543,0.3384923301587331,-0.213160518116253,0.0244417180566124,-0.3024841817353741,-0.0320058516910755,-0.9001276903727286,-0.0193816567221228,0.023808082465033,0.5162502383118543,-0.1102820734765392,2.120741636707641,-0.4427703719915755,-0.467091076747847,-0.6435461911729171,-1.1814699050544109,0.838419665978943,0.1162625088106063,-0.1989442451977359,-0.4941306327977858,0.7053419261383211,-0.1800087402420226,0.1191609973045277,-0.0822416846447649,-0.5258307224605353,1
6.662295347419111,2.2702617766522786,-0.0249464661142928,0.1960563859774202,1.5847832088242575,0.4190026992122622,1.0386158009024324,0.045964031402626,1.1189675824368182,0.2155074167288823,1.35627699118396,1.9934499666212635,0.1692955996516453,-0.4727078887584842,0.452689171056389,1.490042120179986,1.6739103546989846,-0.3453630232263379,0.4425137484555823,0.7287420153263146,1.407747560624716,-0.0271726656932476,0.8799811613093582,-0.2097838079770608,-0.0932788278028905,-0.8270420487742421,-0.328384095167968,-0.4200542963735329,0.3526391339907845,1
3.089455113935459,1.994850943931454,2.3602492362853966,-0.1581447172803371,2.8488186987266597,0.5665844773504793,1.1784476607898084,-0.2220723045258215,0.6757640281884777,-0.1438095478412819,0.2810571111401631,1.3254841783531377,0.1949613212826773,-1.3756552555515376,-0.5522034312661903,0.6184322724641371,1.226912147237772,-0.2872123864192307,1.616963175096894,-0.5266740751581577,0.8992054090751437,1.3122166540027038,0.0212153428868973,-1.0462766548385858,0.741429661440819,-0.9891399089777928,-0.0828944814552501,-0.7726277740775609,-0.2450630032851795,1
3.4257850744518,0.2159523832993283,0.9320636791225207,0.4773696055738854,0.3892880563560729,-0.6515102556023297,0.3667613341789303,0.9743222866516488,-1.8923863849615687,0.8611323421732535,-0.192627796757743,2.417511186975348,0.5744302208265061,-0.5864598983185366,-0.5659308954140134,1.6239958407486776,1.1729710266897808,0.9927337820823546,0.2345011405604637,0.4480501258814661,1.4437035581034507,0.820390702169634,-0.6051846396234473,-0.3061532056861056,-0.0874705888560741,-0.0917460046918685,-0.0909800013512631,0.1359266970554871,0.7144843995828304,1
3.853749428944623,0.2941794368790212,1.601957045027261,1.124430097659141,1.6329985032054093,0.9675321207347458,-1.2702069232202706,0.898001072222615,1.369573153566906,-0.4755722778547835,0.5146031080271083,-1.81701458428008,-0.413547097549705,1.5826987757178852,0.2940165084002281,2.254363760876977,-0.961900962891214,1.509757175164288,0.4425254712966335,1.207160040751587,0.1754234766350154,1.3199799204308984,0.1339442519370092,-0.3293407298324155,-0.3114472646759423,0.6743098111822446,0.5116992869734677,-0.5814706210349867,-0.4553627920104381,1
-4.330908685925028,-2.481719118220663,1.561827915952122,-0.2937436727471983,2.446024663901402,0.4871526517171635,1.0630731744380753,-1.00752519792627,0.2903208313603124,-1.5443518071719324,-1.1856614206821223,1.3288912556310195,-0.735579137037174,-1.0932894705795553,0.5798106236673309,2.2435669820493978,1.1939913578866577,1.4731309114852398,-1.1984203690508084,-1.2063319944602062,0.996560210820073,0.625195463277808,0.6524531920462024,0.3532042059838362,-0.2461920007898271,-0.0038808200773353,0.5703867623702679,-0.6417175573675911,-0.8286658849725174,1
-4.122126025690791,-2.1709029148637398,0.5452387639069693,0.327944307086333,1.5579847079454143,0.5691160738608053,-1.4134937014027693,0.2159491954441116,1.905942110468128,-3.061759397674407,-0.9475949411721548,-2.340458158376799,0.1965086215825505,-0.5911036559892843,-0.7451913838402454,2.104743679603424,-0.5797897369437894,1.7630158710525714,0.6967200995473456,0.7909891367323664,0.6324724951590907,1.170105966201677,-0.0069663179753296,-0.6873543211946502,0.7326730749167677,0.1743585679448217,0.0297188612201555,-0.1810567904966466,0.0087361603418681,1
1.2590183301096738,-1.1857988833941049,1.833139758076233,-0.1543226600790533,0.2664391325588043,0.7218831301148274,-0.546412558129815,-0.611867660071317,2.025271787015272,-1.715011023425457,-1.100819113327746,-0.6870845971745139,0.8718013110170888,0.0396769677547734,-0.5479977289388952,0.8985377098038967,-0.5289838001795129,-0.0378996520823572,-0.3108153711199252,-0.0685704006649765,0.0888755815988448,0.2970835418883478,-0.7603602136459375,0.9455667581089974,0.8144245533174719,0.6995717586401347,0.5245875761052828,-0.1807698431347502,0.0218366522416351,1
6.200930963556442,-0.374469483126996,0.0916603919943245,0.0362294752356337,-0.525552675088933,0.5544970264905468,0.2219593039662446,-0.7428115495069098,1.546157909233301,0.8435218170001403,0.5665502371459111,0.2238246712467879,-0.4718722432542051,1.2454850622539813,-0.244196097868384,0.5761233602821224,0.1169641756428257,0.3936941098970212,-0.3470475863395146,0.5924519090711213,-0.5852551435707616,-0.1516638108794691,0.6131150486818701,-0.0702088076311289,0.9899882032248192,0.4450533989993899,-0.3643629197244981,-0.467204561619053,0.0978090901574429,1
3.780055149955478,1.2827617311310584,0.1533568375797968,0.5834435080417327,-0.3120062091522998,1.1097525760844866,0.0099694745057519,-0.9263587441187392,-0.732861525187972,-1.0378730547554422,-0.1806833257428977,1.1398087128977237,0.3683143075828791,-0.1502624967077308,-1.2404983028566727,-0.010211365372285,1.198695047137414,-0.8161870224759292,-0.0804986431980068,0.7522191990078353,0.8317785246588658,0.4640242865204131,1.371290326975008,-1.057090960861045,0.6729337069711191,0.4663598408383697,0.4312101955628953,-0.7639032777993044,1.0936316650668665,1
-3.1582214406676865,1.5161838156996787,-4.653393706672067,25.770203720216397,-3.333390654765714,1.082994226246195,1.143559124633861,-3.979860939853874,-2.144384153173987,1.6936001334916757,1.1066200067839824,4.248986572428813,1.1875700030320642,0.6729238955071061,-1.3812436023345478,-1.0284584499880147,-2.3959451838188763,-1.382049744811542,-1.7053596284035268,-0.4139900929728259,0.3380470810506935,2.00929348978046,-1.5465897510361213,0.7125386272620992,0.3102612817958913,0.0711399004948743,0.920391541390702,-0.5026609678683875,-0.2342954785686843,1
3.17318415208062,-2.11825825577778,1.3716864921327978,0.0377240301937976,1.2201132131963262,0.7481754993794636,-0.962740185031828,-0.8257460810399924,1.0685080636120898,-1.546799741969964,-0.5501713200835076,2.319291299610986,0.5135992094717471,-0.8708404523403154,-0.5418464699732253,0.5713552163079878,0.7159536707033486,0.4836401618509311,0.2951631418185409,0.9094318130555914,-0.6765901375722738,0.1865138217185508,1.3629727049459213,-0.2772634473509984,-0.0369163256097559,0.0688352436404452,-0.7703610434937842,0.8560124446525648,-0.7229173591885163,1
6.72099632345745,0.491054113354019,0.4651219385130594,-0.1259134847530592,-1.9335451789033775,-0.8383769676024775,-0.7451826605369065,-0.9493633719340908,-1.6227054308664912,1.2840336538144304,-1.184173530375377,-0.3250874109771675,0.7651039570067356,-0.7850389446652194,1.0369825334992686,-0.887330571656768,-0.2455069979607244,0.8882621615432817,1.0926057869798629,-0.8688207357098138,-0.1137134744181173,0.8437861781361257,-1.317537601568649,-1.666357886268238,-0.3178285867425508,0.3210787716971721,0.0589167833402807,0.2223975031551996,-0.8302394140216293,1
3.783703507236361,0.5203309720052292,0.2945002538834977,-0.3950989840794659,-1.0336137106912269,-0.7111537550005466,-0.7205441115970623,-0.9598181252520572,-1.118131055010533,0.930414504411604,-0.6122782123320742,-1.700541473025878,1.1147186691189452,-0.4909838577968726,1.1328848046321065,-0.3538960635224281,-0.4617262310756142,0.1498800967815164,1.322016651778076,-1.4358004611335922,0.3109109011938714,-0.1653386253532417,-0.87728851190397,-0.5829172440663707,-0.7010126887918577,0.0588587202081115,-0.4248210455256897,0.6149131314426675,-0.0821508170985113,1
1.6902690651080057,-1.1178623534421313,-0.0044451458955165,0.3079335500363533,0.2380408552749273,0.1240879779153498,-0.8846903913859098,-0.3309740942311974,-2.2951443910954605,-0.3909999896060144,-1.182367978272214,-2.178765642009066,1.0857905313391956,0.5605438413400944,1.1302524859283751,-0.1358429649668802,-0.2802740843492092,0.336408029536646,0.3843376418396719,-0.4769272013874806,1.3569832834905586,0.8324617287164108,0.6270015873307773,0.8605820092536962,-1.4952645110850284,0.3792693533865661,-0.7256226602020219,-0.1265782668019328,0.38012647366719,1
2.800045564686666,-0.7805832268431689,0.0402832831193168,0.0171714530722502,0.0041770838536443,0.0379545329603823,0.8490369525209741,-0.9417200990504276,-1.9869541556857904,0.1024941291238757,-1.4713265618944276,-2.1140355745017163,0.4947640039678469,0.7740504916939664,1.0806460538821288,-1.121873735026355,-0.4833599701880472,-0.2101856697861504,1.3190150504408769,-1.253360354278216,0.3809009150053644,0.1860031658381005,0.6793566621065312,-0.3708351819918396,-0.9444745999348172,-0.5548292187197101,-0.2454167019819425,-0.4476575476167908,0.4639721030011558,1
3.0140713484473918,-0.0292556506308005,-0.0166627550335366,0.3116831825913246,1.0498141520157551,0.8420767628906147,-4.054128134613529,-0.410073218662416,1.4313673878799815,-2.058543739810034,-0.2061130455653796,-1.540249108399819,-0.3261470295674257,-0.2827264161300277,0.6061403124852912,0.1054445275258693,-0.643198837501888,1.2344367596450423,1.8495776928822023,0.0278891598393046,0.5400828097179683,2.391375658823116,0.1166453374895019,0.0644002293770089,-0.1609820706406718,-0.815261753558073,-1.5589715124593264,-0.1171414277720249,-1.3864885953515211,1
-1.078981787172996,-2.5921363398238837,0.1564866745339171,-0.6076412524556181,1.0831954682392972,1.4636116505082684,-2.230795589147604,-1.4246016742697776,-0.4158261222803747,-0.8147774504421904,-1.1583789212984672,-0.7818563830675137,0.6474793438898482,-0.1125267874740448,0.292738312753925,-0.1926617225395357,-1.2728040155728193,0.3278135051468893,-0.2169601469562156,-1.1891667749747887,1.0036110665257585,0.3358188696611852,0.2105968749711859,0.8840394752946853,-0.727905235734096,-0.3936398169482033,-0.2599350748594035,-0.6172463152451977,-0.8358537431161244,1
-2.1308365624873997,-2.3899826663516217,-3.412656003357041,-0.6770764699088543,0.6429000380353791,1.6814263928625666,-1.970351852028004,-1.0532844813589868,-0.1432244571602677,-1.2962196635124843,-0.5069413283577946,-1.3090277139136772,0.6686527259474664,0.7322003179307836,0.4907717686555184,0.2448910038858702,-1.6790170519455514,0.8953144684329961,0.2094182871146639,0.2447397247328139,0.9946681201700732,0.0192449164193782,-0.263926838001303,1.134957059720597,-0.8463054802419484,-0.454565742880979,-0.3410457128592598,-0.5332094701822139,-0.7893052753010877,1
-2.4414328074549503,-3.962230395354612,-0.219224929495216,0.082010994010378,0.5809107596988449,0.936455712877871,-1.592447118302602,-0.7341442425039758,1.075946360438068,-0.9996842067383724,0.9415194011876896,-0.0875367944739608,0.1195361094115295,-0.4805760274036295,2.401226553876641,-0.110230648833521,-0.2650994582049052,0.2170553719804133,-0.3628936891249617,0.3528284482454878,0.7602574044750549,-0.0539012610952101,0.1254414613536575,0.1481292153785572,0.3489631507669804,-0.7627022363522338,-0.156676246692592,0.579589916021824,0.978562404795078,1
11.370673978683076,2.661036048557205,0.6395499835512406,-0.2584633056996471,-1.2905604477715258,0.8888424845665209,1.1014860008978893,-0.1663421480640305,2.835877248378729,1.3278835085648546,0.3084754084097483,0.2091958146096088,0.1492276086314221,0.5105996271994677,-1.005889423996374,0.4063009375055015,-0.2539882481177116,0.0943113393151866,-0.3630045424044568,-0.9303253180587748,-0.7464039901869445,-0.8251923012095058,-0.6586450821731876,-0.2838613408809097,0.2052299560245469,-0.1581274006974013,0.2606629565630711,0.3589490875931109,0.1179319399780048,1
5.6694546456794,0.6949585375892838,0.0951816343234136,-0.062585861049691,1.3728994955623115,0.8846032689225031,2.601989222408298,-0.3854412805422662,1.4311386267432882,0.1928936453784216,0.4448033190005731,0.6131025104382474,0.7318566783253622,1.1484747440764442,0.3868680033642391,0.4461911005339276,-0.3059666964234621,-1.83116287866303,0.3461492796262413,0.7221503806320978,0.4914144058181108,0.0400278523262927,1.722319179890989,-0.2735519752889698,-0.2673487205988328,-0.2034958981451368,-0.429179118673712,0.3408987092238305,0.4850907883442334,1
4.545326910316715,-1.5025993049812458,0.925565806889668,0.0169705926166805,-1.125499645420081,0.6608596554811279,-1.1042124485481477,-1.6735732753878925,1.5108231963770449,-0.3889418262062364,0.0784344108142664,0.6448926242499349,1.209471162389605,-0.2520560518819574,1.018112203826393,0.8981278900381758,0.467511363859757,-0.7974991773818978,-1.066589986651485,0.2262113156625519,-0.0080877599015271,1.0213480493038969,0.875267972299465,0.2885337660840151,-0.3537519083367857,0.3885936357530252,-0.4053322561613556,-0.1153140056207306,0.1923036535504211,1
2.0926140643614963,-1.326324667313736,0.3464566939916274,-0.0951499347823393,-0.3127832109564119,0.5191263562975746,1.072113467822738,-1.2397759000412547,2.755007471124746,0.3192086319864258,0.9990205652280052,-0.0879021634459503,-0.9922060614196504,0.953167149668474,0.5818973742924431,1.17837924034897,0.266884350176082,-0.1832822771435581,-1.030357434374381,0.4154817881536866,0.2349610444087294,0.0211686455044015,0.3739035824258067,-0.0791969874579653,-0.2131718163179396,0.5282684941137006,-0.3681602649026563,-0.0899565361104903,0.5116941528393274,1
5.424799460782677,-0.7097766642239702,0.9507482112874766,0.2698050253310622,-0.1783707127602353,-0.2214655408729755,1.122635807089337,0.4613164806088025,0.2266465050670943,1.4602860443840662,0.7673260356919485,-0.0552674300655291,-0.8473481691045884,1.1237687044756892,0.4835995519181326,-1.044292459160287,-0.0647481565904063,0.8085450643627952,-0.0857617116675631,0.5784091379185397,0.9216945966866288,-0.3467420854638791,-0.045160019628869,0.2761934918630159,-0.1227364678025,0.4142379302341999,-1.1934250697063171,-0.4530759011676337,-0.5428707550560516,1
4.4715853319556365,-1.373517831012531,0.2460870458322946,-0.0510289765450077,-0.9490980961278918,0.157735802216604,-0.6298309498101866,0.4500635936064404,0.0216043952799598,1.1875179171138004,0.4166385585790639,0.2703815221781806,0.2634474869534383,0.8492911270364402,0.0387265502323447,-1.319704100348521,-0.6743280673321562,0.7019520190316705,-1.0377599935459514,-0.2276855294231348,0.253543201180602,0.2673963315665312,0.280565977410878,-0.4406789576903758,0.2178584827945341,0.1062642437404959,-1.0538766609164565,-0.4004153871484703,-0.2108722209400103,1
5.165012992041911,0.4976885702329598,-0.7032645826752385,0.6660298490969171,-1.9825863477701455,-0.2440819154937447,-0.549052777485468,-1.04731449496802,0.21423092903486,0.0016591581364918,0.1366476124988374,0.7187108054780507,0.4542372786755076,-0.3824365950890467,-0.0585757540620077,-1.314655776918379,0.0715984996709082,0.7898203320747247,-0.8802506198825104,0.640405042457547,1.1637743465774069,0.4986945696375409,0.0318353492466386,-0.1184767627770121,0.039611443968277,0.2329679137235483,-0.9927225474361,-1.153171915657609,0.1610523562857014,1
4.322111298799227,0.1322845697518415,-0.2631676874226266,0.5195508894516667,0.1581123957540559,-0.4219226644557153,1.562821417152627,0.4081026132590174,0.0785713911351093,0.8235413515343473,0.2299889733226269,1.1280343718844283,-0.6897431708136752,0.3876086510710501,-0.4624937443321876,-1.1766562752815308,-0.0910486962164103,1.0135451770293165,-0.0802776627093178,0.8238535330628757,1.4701926979748865,0.2584517975560351,-0.4410221079240746,0.2270109592903912,-0.1317243627739339,0.7658732905672163,-1.115060675789304,-0.2033156967163359,0.0141544214773181,1
2.170714507742625,-2.04596352098399,0.1485896752018035,-0.325755602526859,0.441393894459394,1.072892599940947,-1.462120499480638,-1.4019787442334826,0.6653844213234049,-1.1854204682705545,-0.7648329356265825,0.5834964737200515,0.5029453633318686,-0.0576098682572766,1.008024479473217,-1.0537849227321443,-0.6381615600573799,0.1087282635858043,-0.292624547897533,-0.0604832233932799,-0.3837032171669961,-0.4434532499752148,-0.562551998031702,0.0928104963155243,0.6729738744476974,0.3393600950028208,0.2296059639135402,0.213326635437464,-0.3338656309597347,1
1.8163946732467149,-2.037422391856333,0.6994034052160099,-0.4525819501062759,0.2343679473347913,0.5333243593156327,-2.20268530813563,-0.5815350629158088,-1.0314156711059774,-0.4322555853443764,-0.4450379902463978,0.794225083874978,0.3364833492441291,0.5978972906050294,1.0866622820514749,-0.5984193802691051,-0.1669309821198353,-0.2765233313363055,0.8613254819137335,-0.4380358738768063,-0.1494255871593622,-1.5360781239038792,-0.5361435654095777,0.2770056366316278,0.9901109565010516,0.2145047717948234,-0.3977947256856103,-0.2219671578076407,-1.1734656389195377,1
1.5432312001966872,-1.4964343167462435,0.7427602168446134,-0.1963395638797288,0.0849362534066829,1.3696557428896934,-1.8610022695143364,-0.4859061131823381,-1.4461974549045604,-0.1417542897899618,-0.1982387854508697,0.1497332319959577,0.4566682389324382,0.3963485682015532,1.465720446217411,-0.4235480023860737,-0.4006847185855192,-0.3814706842563166,1.0162556889174292,-0.4164120175360518,0.3221941306526971,-0.9755561131774828,-0.7522287982376202,0.8586256808317076,0.5195837872774506,-0.0785120693616741,0.1631815943169663,0.3681689791763185,-0.1358887925660915,1
0.0923660954969529,-2.470969537347597,-0.5274341396609029,0.2697450868642141,-0.805383012922029,0.3519118537792066,0.9536925387339052,-1.2652861254985177,-0.4887910192930368,0.3430767012060552,-0.3812847033882327,-0.7207026583139028,0.5760531333106019,0.5524487108652414,-0.3333490663276048,0.6944134860489438,0.2748263972135387,0.3926718054658797,-1.1729142935743575,0.6100215903685976,0.2813073627660659,0.1005671181104625,-0.4107531379834978,-0.7835181701104629,0.0226635190046128,-0.5187249525336334,0.071760032738113,0.7485437198008477,0.2957133623507729,1
-1.1084375995100677,-2.846604467984232,-1.040859989209459,-0.3552393382097999,-0.4336864582833084,0.9024821124823448,1.3926610334893397,-1.1022238477435813,0.1624968342094667,0.5995327741317618,0.0660485636633331,-0.933507631883608,0.6998356133353127,0.8293796237488907,0.3561553956342012,0.4462453530263438,-0.3215534531706966,0.0250588030384549,-0.646500383937303,0.1806970773727186,-0.5481486088044335,0.286922122402991,-0.890193124351574,-0.2607474176713382,0.1765989128601191,-0.8854953931000987,0.3311395761496123,1.0028519043429902,0.6430639345682813,1
-7.459137433411088,5.715773304889263,6.811061783765453,-4.580511664047198,-7.792008572549679,25.243316970884045,2.249602133702898,1.002074024512725,-4.683682731891767,1.0950664948987918,3.4358685888281264,-0.7817693072519479,-2.705547331226383,-5.445654933442117,-4.081902146037107,-0.8645697446176912,2.182891684709471,0.2891730396142715,-0.2819075224958815,-1.0116261563216606,0.0009815951045287,0.0680056769296734,-0.1522652164819185,-0.009602239895147,-0.5722819689628514,2.4671115742491048,0.0074875571633349,0.4278602896035373,-0.3634016548528705,1
-1.770605998038953,-2.679777794664728,2.441026550054917,-0.1436965974963757,-1.5911002513509056,-0.2986328071391795,0.2798948866319626,-0.0280207095905511,-0.3523525244919421,0.2623249591919179,-1.380388652150257,0.0534343124934518,1.0761335830452476,-0.1046365775121394,-0.5489823061317068,1.530549029523601,-0.6548378783257214,-0.0418964106732888,-1.2926676452961785,-1.2039493395378722,0.8630926220419004,0.2949246516386002,-0.3357343710666571,-0.4803958160708048,-0.0836847050402439,0.3206806094138215,0.2431257659894815,-0.219327008546866,-0.0416840897516622,1
-4.8063008641576666,-2.3250080271652585,0.8116449871291974,-0.8099733355895874,-1.255986830990115,-0.2337019747639176,0.9963264949110509,-0.3647697980864284,0.515709278497132,-0.7041424604373597,-1.1262762914660949,-0.6175284036404705,1.0338369246235477,-0.1711568703220209,-0.6089435246523789,1.7490714578749444,-0.7979242511859359,-0.2476656383761184,-0.5251652943547357,-0.5941734063975199,1.1308477312853968,-0.4514323695547852,0.2862836050570043,-0.702232735924473,0.9063978456794094,0.3458892275542936,-0.616731346934742,-0.9698814534800068,-1.2925472112199097,1
3.045495941203318,3.158657779193197,3.3195903885632947,0.5675501698972403,0.2531350345287732,-0.6980297645327259,0.910309103959613,-0.329875425878386,1.796222217603665,0.0283670536613499,-0.0073681313989716,1.5702721253663627,-1.4549429045224544,0.2403780498106553,0.4690203278701632,1.7053303125890489,1.272689390394513,-0.3265704165163174,0.3183593951882464,0.0250766483782971,1.0217898468962323,0.9625360152908908,0.333127063967472,1.04935601267206,-0.0717220049892492,0.703023200082783,0.2299029965191449,0.6106416623635694,0.4807931785208103,1
2.341219858007171,-0.9540991566650984,0.1017992260795234,-0.5896078972458335,0.8054372620905595,1.1570214155065792,0.3255584920198409,-1.0052381740280052,2.9196461172701538,-0.6254736702751081,0.3318020614283127,0.7810579734777632,-0.260872304062025,0.9840432571036564,-0.1682133816511278,0.7726850097084806,-0.1633077816066671,-0.8897571703018158,-0.0009271080954519,-0.3128281090625517,-0.6447934152814319,-0.7276686882494666,-0.0612113716633213,-0.3733413863869155,0.4309902199610455,0.3209746513943818,-0.1270408326143666,-0.0199048240907578,-0.1322559883645836,1
2.898535173015428,0.8395336458577914,-0.0702463999966716,-0.5310018869103288,-0.4559235673571216,0.7155126447216417,-0.1230477801837096,-0.8242932171240954,2.9559428525125653,0.756938249733947,0.4282463082373993,1.441401552986783,-0.600511639712773,1.364106746355552,-0.4166616043988637,0.907415778376138,-0.7532906352266783,-1.1900132377233907,1.111570896377769,-0.0097358451680287,-0.5489251826907258,-0.5198480613349623,-1.1230941182171468,0.0370792988256491,0.7170653751360505,0.0916589886319393,0.0564590120802386,0.1079993834366078,0.2064829636878759,1
4.416722947684143,1.1204301023859886,0.8398039156349453,0.2630342668001625,1.1848844421157845,0.3866444689302685,1.9854687000764435,0.3642453893549718,-0.0133118486419504,-0.2530545909658572,-0.5249512807100392,-0.3321215852815802,1.3156508320464453,0.6579630287875361,-0.4132072380331963,0.4436225947241006,-0.418038508505874,-1.0139580532886163,0.7660029228040844,-0.0663091280134033,0.5645112295039175,0.5066584703096549,1.162684195708001,-0.1222681838004897,-0.4745794162822996,-0.126955695987434,0.2610422554417624,0.3380803943307444,0.6029397480046993,1
2.290956581139491,-1.713009464999626,0.2107267387839932,-0.2546001998545487,0.5060819520380159,0.4548648687808057,-0.368104665201142,-1.2993703533382794,0.5995704875190571,-1.1304877176976074,-0.2582052649132467,1.1419589191398103,1.2785818282394306,-0.9955643554678064,-0.0088339755553542,0.08638209057621,0.6113969005131872,-0.4760260315197653,1.3989755267501167,0.8210940196457368,-0.3068574337753669,0.4953787474973625,0.8420818285920978,-0.4526565457698773,-0.2636105875371113,-0.818704651005794,-0.4464574398152118,0.1971508342362903,0.4801423660937288,1
1.1807904299216134,-2.884274073018295,0.530408845493617,0.2843235218630514,0.264274498805413,0.5746196651423634,-1.055358867352497,-0.6489708538181094,0.1480178696720785,0.1135945384644246,-0.0154126175945201,1.197659076422281,0.5751827265434729,0.3243190474783577,-0.1198758324766033,0.2814800710093575,0.5681480009603407,-0.2160521055368075,-0.5419905879207857,0.2833266792850365,-0.59614078738237,1.4996666237957783,0.5977016899577664,-0.4602244574662638,-0.5980870650685131,-0.3235322746925864,-0.3225786766488598,0.654769690615704,0.5640815127205554,1
1.2231042952008142,-2.1234852390595877,0.3596691202669527,0.3927961983813105,-0.5813592533487537,0.1585631136910154,-0.5776098116196918,-0.748511977097247,0.8443997630028999,0.0286926374170006,0.3664411855916145,0.1064862405590653,0.4082587159203946,0.4549779103652306,-0.0901084965591771,0.3432738123551451,0.8675746069044266,-0.6191230759259462,-0.3813750332672823,1.0213711337005458,-0.0158360588669436,0.7025585710473401,-0.3471937038743492,-0.2980480397892371,0.1690680211364474,-0.0830828842756198,0.2456133252111923,0.1580228249174558,0.1485821864944373,1
6.266116409980029,1.513944792368933,0.6626221167554638,0.2942223143085675,0.2550608614516275,-0.5255273619804605,0.2562801119067299,0.7364826726966825,-0.2713185391660846,0.9833140444657046,0.4388648121767337,0.3041996577642881,-0.7866308107579032,0.23388167714828,0.7988736629228524,-1.099595553213874,0.6102666550250784,0.6426083325345835,1.0109969912235677,-0.7485105158441907,0.0470591890224137,0.4276391230143255,-0.1934413479178301,0.0397144600364074,0.4598665211313192,-0.3342749528859366,-0.2821943595857813,1.2826563742460877,-0.1194400867967961,1
4.73246751169257,-0.4231268541541755,0.5201661973527872,0.2517693496881488,0.4047343789473618,0.0735287886643496,-1.5613188395990103,0.8791119172246383,0.1890831608214112,1.0950342201732155,0.8364355793484702,0.7519404270256653,-1.0479538218574076,1.4607962133667172,-0.5685782504198705,-1.781656323151729,-0.7033853424990554,0.4305228229149226,0.64901519029468,-0.9642669373022524,-0.3681905597856217,0.5084743663527551,-0.5543512643182893,0.0503814716418266,0.8932724090077967,-0.4238740259442427,-0.3030777800767905,0.645010085065232,0.6235028075751643,1
3.1119824557794797,0.0056026191180738,-0.3459153495498113,-0.1383006111674182,-0.8464186289633534,1.525615849487937,-0.941756822177037,0.347169953688678,-0.064441188143716,0.7399567129263874,0.897523010990102,0.5061850665132707,-1.0636887072101455,0.7144920616860025,-0.2867184359256206,-1.5195852083853478,0.2883881688845126,0.2418551535422568,-0.4796154000564405,-0.047677895782399,0.314312854754062,-0.0750141901317922,0.203906219282945,0.0270738026915178,1.1205798199002377,0.3370607150806689,-0.0652784646370669,-0.0727149964642784,-0.2185242318954208,1
3.742119115502791,0.1697412101501622,-0.5824195886226318,-0.2059251044768384,-0.4918878414146708,0.2259908072806665,-1.038297585978865,-0.4775530088314803,0.312129877893287,-0.2505723552224355,-0.280273974722046,0.3216372231968971,0.4262688826792089,-0.2696827916766581,0.3305299052716183,-1.5824963208428473,0.2632539937601872,0.6324118091441813,-0.5846315601552665,-1.0687337173757203,-0.7115865254174931,-0.2004442002471885,-0.1973344048079633,-0.5933530323004627,0.1181749830698098,-0.1511144441309702,0.3692376742933187,0.3308036746810002,1.3461326105795133,1
5.94829363659466,-0.9931674676592034,0.3351235022811665,-0.3538668571053304,-1.700248082167238,0.4276245525002372,0.5577052812094051,-1.7982958635113595,0.7347076493474851,-0.1441617757791764,-0.7016810476447679,-0.2759699072078915,1.6467870100591375,-0.6536886635476757,-0.0138106029469828,0.324563460943098,0.3394789035150531,0.5916043829935896,-1.0462671500912384,-0.0424457796626257,-0.6615088005141155,-0.2417182064134226,-0.1590852210704697,-0.6426785557413062,0.4351368387165154,0.1637152310491103,-0.0807724418667712,-0.4637693935164524,-0.4549637826566951,1
4.903831814247527,-1.2336607386846985,0.093983641940913,0.0338579823227144,-2.258389974262285,-0.4862224715979863,0.1940520584946951,-0.6477277228149727,-2.0532781375274785,1.3639683305771029,-0.1179868330492561,-0.8810359899025737,1.894641094750651,0.0609235601080472,1.1181346763778863,1.0750365968184852,0.5901146259704838,0.442237440736461,-0.0335083478995813,0.4450600628703923,-0.0518998147334053,0.1020116652660601,-0.3318042902054735,-0.2895443206971622,0.3324897662104435,0.6326694133494032,-0.1004457729944025,0.0186924646695731,-0.2925724779724878,1
1.278174289835257,-3.0925515733387368,0.0514091623873295,-0.2659413239742612,-0.8246215332671352,0.2959399284034894,0.7967340775204683,-0.9492257842460812,-1.8973982392694584,0.679836696095394,-0.733658601703899,-1.0455098106680225,1.393777741462799,0.6268249785129146,-0.1079825699125286,0.4017062719745535,0.4077322963694772,0.5277651555044236,-1.1538648765240294,-0.5518727055894923,-0.3248664462019975,-0.1394239417704036,-0.1975585061255369,-0.3042155865727813,0.10288055856902,-0.4222890034473859,0.1880806259258507,-0.1131097083673469,-0.6597059403382043,1
0.0318941931024037,-2.9302872243316496,1.8222863436596617,0.1822871195740861,0.2618941224106714,0.7355630834793392,0.2745862615298572,-1.244816490677297,1.0805361815755965,-1.0443279852924303,-0.2783153248553435,-0.5716242914833406,1.475364552943242,-0.2051918732870999,1.0880115291655883,0.473727657007971,0.2135801146533581,-0.5001679400475842,-0.3441566105511773,0.464576937800629,-0.250151747063379,0.3111061198730296,-0.1388241996008421,0.1242077139717354,0.0013353032629106,-0.3552607665308595,0.2122513895114494,-0.1043398467400491,0.2774411769721566,1
4.074798711875678,-0.517495981877699,-0.4854784096196071,-0.0788570651558476,-0.5920919527884586,-0.4193433795573787,0.7189350381940567,0.95250000743666,-0.6813597571103909,1.7844083405326614,0.9293136194920056,-0.5165151485361055,-0.8021308329927826,0.6576360288143325,-0.7089804404460401,0.5390618914233017,-0.6670890428959029,-0.6181656541197502,-0.0720778164378597,0.8072152269909358,-1.5043847403425443,-0.197859242847419,0.7901001783402736,0.4686073033094672,-0.4755871003490293,-0.1013699405373766,-0.3419375010529033,-0.0334544357184444,-0.174345716716238,1
-0.4954260055339559,-0.6987065127689128,0.3304850171115001,0.0594620768530865,-1.141269299367934,-0.9642867799466608,0.5605721406351009,1.2969613094965449,-0.2247927395847118,1.100022834008659,0.1135984629885069,-0.6313601916092251,-0.6710740099928085,0.0225462153888488,-0.8043311404265368,0.8905776207059579,-1.2965743599396935,-1.090289586214534,0.2427923779454691,0.5068160152047777,-1.0650258412463574,0.0240262724691508,0.7363313160637013,0.3637798779949897,0.0623672728847385,-0.0102603337018304,0.3158816098345198,0.2836125135857996,0.3596154605040388,1
3.92043502033002,-0.2295785734002296,-0.8253953549845453,-0.1647443921982791,-0.782446296554882,-0.4393970328189885,-0.3502061405805586,0.3738607580922443,0.0229017589183327,1.111641866717478,0.3600685371123208,0.384290589855685,-0.4503042442451408,-0.0412736761357098,-0.5993105166705396,0.52691875915729,-0.7963207429814304,-1.0269780004553677,-0.2671776724380352,0.6585470687569538,-1.8523859618579332,0.9934458175292454,0.7882316293947047,-0.7045433027999201,-0.8472937757234493,0.7386041714567502,0.1238633442935289,-0.4044108088265347,-0.0822558847849125,1
4.092549150441356,1.1054090609549492,-0.4844095945498784,0.2810080713891068,1.525435606685869,-0.7417044245086171,1.3734079886921542,-1.3472445967277626,-2.650352197863281,-0.3452781292139211,-2.061910738244413,1.1328621462102553,-0.6186833542810438,-1.7270984730979415,-0.773134360423116,1.283483776591794,0.937048966886456,0.0082939781020702,-0.4960588438935895,-0.7445404971942275,0.0267522851815628,1.4638084008012089,-1.3961911985315192,0.2532634633708534,-0.3593896046289742,-0.2043693500806175,0.2468503103065992,-0.2530661322344459,-0.9893791517015058,1
3.448107738238069,1.343799687117376,1.2507375657372712,2.135033244423965,-0.5652615336692876,-1.4091347930082936,0.3442402945936881,-1.8760625615533844,-2.999439755487366,-1.2623740252171198,-1.795966551635966,-0.0830143457004351,-0.9502840625318456,0.1940848893883195,-1.303114722904048,0.4266522664269855,0.8698962578345902,-1.4880792321467515,0.1703610667633559,0.9336597401868938,-0.1341007707743774,0.519131436032163,-0.4787477901507442,1.2270420885132551,-0.3790059404525628,0.6810063709432153,-0.4938859844133953,-0.6546313739295301,0.0981327900551224,1
1.155804998227287,-0.4948632004860273,1.1148646491801504,-0.4555138583691131,0.5859116969456839,-0.3341767139524796,-0.5412403192809236,-2.0218573293852704,-1.299545009020881,-0.1341175330706591,-1.5154074836537252,-0.2581572443314425,-0.6389076667903283,-1.2069349956229087,-0.8747133034994444,0.7131117056499455,0.324543683353369,-0.9101473460004356,-0.6329968730586836,-1.254087097643959,-1.0835731955573529,0.552711762111691,0.4198503652668348,0.3202494009372029,0.2908236107071963,-1.4879196324850217,-0.1872383734438543,0.0236067408385495,-0.3254372761278635,1
-2.742599576654417,0.0958684750070413,-0.1760258267415947,-0.6594723216691717,0.4904219726333669,0.3810724321320675,0.1255598892860675,-2.246432517391714,-0.6567209470958856,-1.024259018630842,-1.1260710648418435,-0.6652774951894067,-1.5011972296407186,-0.3272296262602936,-0.2281986460859792,0.8970809364749183,0.3582747278456961,-1.4117999732773026,0.858196455658406,0.0843685113206901,-1.3931539651174478,0.6139438047064334,-0.2275902759360388,-0.056103072174825,-0.1946749104166198,-0.4873318555927302,-0.6818242370497641,0.1146286459026538,0.4183858864549633,1
7.173431769364979,2.324578215667939,1.9094981075912785,0.6680390484917299,1.4440018774159336,-0.5957834107133959,2.921070071638805,1.898137080583848,0.2262471584080747,-0.5251272469089378,0.2079110081444642,0.3855199226844558,0.552484928349505,0.1500193376381941,-1.397846754291832,-2.115335118881006,0.9873685986913332,-1.0548538150123892,-0.7202961189802634,-0.1553074598536336,2.477734208195947,-1.6191012885847598,0.1081308113371298,-0.3682690562581198,0.9484984830706956,-0.2678810397814508,-0.3806751208516964,-0.1006255206488699,0.2776114683681204,1
3.458229708506338,-0.2738872110686265,-0.0519629012461193,-0.3468855123249584,3.0259297573518924,0.5863907303460293,2.177631486046503,1.2907195152067756,-0.8273695479305947,-0.4587928231124558,-0.649679793977999,1.8060766389071576,1.5636877096957378,-0.4319940774056549,-0.3228410192791279,-1.368016944393233,-0.8969201068293386,0.0926926593174982,0.3341639385034679,-0.6911024577357595,0.9305272038200378,-0.4090193826506756,-0.3356412870182606,-1.855896037910847,-1.0615358193449187,0.357792116937351,0.3467961558610323,-0.4422197107804475,0.6889630244322699,1
-6.8784193996963205,4.026091896386473,2.4841085670387097,1.0588844512097684,0.2107102214974752,-0.7501106625484747,1.1012072354826998,-0.3373963705567138,-0.9058113805241996,-1.3984183709367646,-0.1477452895970005,0.1940072149718228,1.492138775094623,0.5674765016753384,0.6645469292359506,-1.296146116251621,0.0504718263988277,-0.8313507695212069,0.2309365150555317,0.6182260340377902,0.5449667696715991,-0.0990760182093623,0.3331317788018207,-1.3761804997224971,-0.2452941410838555,0.8251157430831627,-0.5750366036018859,-0.993725756226164,1.5583076265808855,1
3.569037956454067,0.4978839095919811,0.0970139284439428,-0.189768174412742,2.2043754514309937,0.6842843482407349,3.2840936722216854,0.6525933178010028,-0.5571872635755442,-0.1512084208017989,-0.2632182100052278,1.5445513920785094,0.8255132725008247,-1.139793635178697,0.7629397316603695,-1.2695115682214178,-0.530530843948526,0.4855185691598191,1.6965571615168846,0.0882835425157316,0.8186173462466729,-0.4924727532525524,0.1579415973365472,-0.9459811869335986,-0.9418925133154152,0.402025030889399,0.3825750171133011,-0.4443238169720609,0.8278765508810795,1
4.909165767325431,1.3612363112951016,1.874275433306393,-0.5212608094818003,2.223385363102405,0.5937577079216122,2.80063061703152,0.0335361274360211,-0.9913736060677736,0.5996385122609675,-1.2996983247847875,-1.4011017465920452,-0.3470301740669165,-1.4473686688351464,-1.6984023245128377,-0.2872913345686005,-0.0068610114774062,0.3853410937898368,-0.3170688427533794,-3.087310769515326,-1.5671502432272226,0.1425339801745352,-2.435608288365814,-0.0179331206887964,2.2182961857926093,-3.1184157388843445,0.5281140910909565,-1.2628143345077385,-0.6348094248970331,1
6.969178817082411,1.8260662375257843,0.929373917911886,-0.1438504901077062,1.5887729915909727,-0.5675354205924176,0.4661022610932787,-0.9444842514557102,-0.8300115617255616,-0.4053843965238372,-1.4325850924464776,2.2601204512906303,-0.8808246210445785,-2.3792038900821937,0.0871960881687395,0.931137819367085,1.0082545093779802,0.5857780425745921,0.1729810271311202,-1.455460267855606,-1.3803815263374966,3.496792896369734,-0.7948849783212316,0.3971477628452239,0.7512515936126952,-0.315151179054029,-1.0931863925907883,-0.2683124553317406,-1.7207214936163544,1
4.648723836719812,0.142046441237567,1.0736619870578692,-0.1025358370833227,0.508313110131202,0.8781022914303568,0.2097124992337551,-0.2922881577270214,0.255580779128484,0.3071358036350528,-0.3644169978733582,-1.1080664024498927,-0.8065004106060707,0.4226793632310294,-0.2739561134037041,1.0588347939919518,-0.6988319747224049,-1.133818440646163,-0.5466017795177517,-0.6099266552628314,-0.9418470436335048,-0.6563850207572178,-0.2193787930855365,1.4682597934434771,0.1975325309563097,-1.566630428717955,-0.0843437302397306,-0.5209016815967509,0.1372033077548543,1
1.082018596327864,0.4238249452554705,-0.6463300309978968,-0.6200417843394486,1.3933827933047185,0.4815115549353517,-0.6246153601105037,-1.6161888776222548,0.5440618223545929,0.0039783181362659,-0.7923531652498838,-0.8867209578516573,-0.3191634241022734,-0.5012944911846939,-0.799378527965058,1.1992856202114002,-1.378283268769258,-1.2274063542572888,0.588388808199509,-0.093537357400859,-0.5877102918435256,0.6867622363284737,-0.2795584881731374,1.591232069655641,-0.2143786932004872,-0.8213907242645114,-0.1977900123045461,-0.5293383485616779,-0.1115528402752574,1
3.887756670085155,0.0490429729386519,-0.0626825612611494,0.203881572772471,1.9817868898179636,0.9929778026306764,-1.3723632407741129,0.6184294347897819,-0.6565140035575722,-0.469017074028808,0.5617605545207274,1.0999150626957097,-0.1421034965595627,0.975047004832195,0.5259216484287258,1.9195811389797175,1.2640129316392232,-0.2230888662120893,-0.4798533499664114,-1.0457012813177669,0.8070374777691598,-0.1416063704996863,1.7103329446302908,1.5465676300910578,1.3981635956002034,-1.1673222687952955,0.2702602216935024,0.4176833644233073,-0.4145948460461113,1
1.5221249992357204,1.2635342588725555,-3.4448954952994075,-1.0150136605069082,1.9183754048242183,0.563781528384946,-1.6964214886824835,-0.4384753452673273,-1.4439998835293515,-0.882272230832756,-0.2320379123786067,1.2979247599292203,0.2366173445166407,1.578512167953139,-0.4595698000611962,1.589661111390103,1.548164615080444,-1.6384542158948288,1.2155748415281171,-0.578543800865817,0.5067493343502008,0.1428143461294028,0.5973426592062868,0.4025406055660762,0.7559263506780146,0.295926239466607,-0.3392836441882039,0.1235584185797301,-0.8711270402913734,1
-2.5398784065905877,-1.729185085695539,-0.7892943903636503,-0.4848949860840792,2.3708993560097418,1.829667993660016,-1.809627401737184,-0.9332865042210946,1.4441628613279298,-1.0273587775178648,-0.3148732450034968,1.899562193960568,-0.9013797367710102,2.241207487002173,-0.3452710074414876,1.0216424721195048,-0.1765077193233418,-1.3765712708097533,0.98279794906551,-0.29933353069176,-1.451160170312337,-0.4343357316361437,-0.2003935439187672,-0.3110849026112577,0.3184291168585543,0.3295359969127914,0.1661218548435145,0.1589867625030166,-0.1005419610019804,1
5.952588413244535,0.7796088134109768,-1.424298329182359,-0.2521471784384561,-0.784624712833626,0.1942125832799559,0.719470163921348,-0.1172484013142092,-1.164971081074169,1.8047511023930405,0.0382572187592218,-1.2378649043829772,-0.2353499464228935,1.7458562354971656,1.1068360985808137,-0.0944553990628971,-1.0363782234549002,0.1319905050049485,0.4748903197361863,-0.2683184907778012,0.983122666293497,-1.0013281211529517,0.3343174177006753,0.756446379271615,-0.0387607797005406,0.2790010831171701,-0.7106475620908632,0.7575761698985991,0.5143796180940748,1
3.440556622959557,-1.5325923870406784,0.8113950074485562,-0.0846691133576517,1.2450947650724895,1.4628142309902916,-0.3243909343576876,-1.1826018972826728,1.3537046325897983,-1.7779924927470832,-1.2286947569428976,-1.4820594835603558,0.4727904863910394,0.4509775835571444,0.5511694424096857,-1.0768671980291853,-1.1660385868702006,0.0121480564544639,0.4189606949442169,-0.0299540907540184,0.2942516782659878,-0.7230724033975325,-0.5866389883389235,0.9468837998587912,-0.3028308277790141,0.1366631826173342,0.0726968123961067,-0.2613309617329498,0.1082849721899925,1
-1.163830662724761,1.6533235528662893,1.2699836946447134,-0.5736655296627267,-0.1057778284519348,1.053873175649307,0.0233126785007799,-0.3923468290048288,-2.0604931618854283,0.480805219726702,-0.6306875015283353,0.2834528286964332,-0.1898748421646851,1.590867409397116,1.244425635419096,0.0252396597694162,-0.2669900308102692,0.2747387534313117,-0.3401770651025652,0.0332727849873726,0.6883053266217914,-0.2746832802100114,0.4183842704102044,0.3517521406034945,-0.4173132274306902,0.9280494477926514,-0.6758117028970354,0.2091727206564053,-0.6278188937793703,1
-1.4915688901541546,-1.3170497385075703,1.7285733962595582,-1.0687258006842644,-0.467915364530883,4.203751938801709,-1.2608693477601922,-0.7172308212834639,-0.7391560452517508,-0.9814633179911688,0.0760882434422042,0.2344897399359621,-0.6398003124410597,-0.0745383116799365,0.7815996902903595,-0.5894468395806822,0.7937608400802946,-0.2784792365394155,-0.8683606086350365,-1.186917304546521,-0.0015064215669416,-0.9233416031323588,-0.2005909414922757,-0.1909783969199748,0.2333254033737585,0.9959362421197302,-0.7244061121111783,-0.5795117679784232,-0.3207056063125033,1
0.3384841896889798,0.2407291065198657,3.0557249727240987,0.4542131546864905,0.1711130607933512,-1.196034323446157,-0.1100133409784534,-0.3204408239926299,0.5710103992495228,-0.8237009029930191,-0.4537943200456582,-0.666744931258079,0.4158439808247036,-1.6624039868005025,-1.1156298307977406,0.1627050261268629,0.5290050422970314,-1.6345246502820936,-0.0071340640887811,0.1505661001624359,-1.0834241455861264,0.3946123069627429,-1.7968818692424071,-0.6343035498266422,-0.2611072309440296,-0.6635351088706058,-0.4232492325735658,0.6835094567943458,0.6334844781317811,1
0.8557393194416899,-1.2590247955517535,-0.1591333013823897,-0.2156606226415219,-0.3978910559441984,-0.6476008928860626,2.0652085837619056,0.3746534900397923,-0.3257223648491705,0.2902264054995502,-0.0516288977651762,0.6773983389253201,-0.0030729153839171,-2.2157253579006757,0.418760588174731,2.0009611971559966,-0.4197514603794609,0.2265257416456649,-0.6743965131806466,0.9436931874114528,0.2280838208825681,-1.4117245865421697e-06,0.3066243980092129,0.6097407696728275,-0.1680226478157217,-0.2916609826210634,-0.7169628921706777,0.3434414688003508,-0.3234699443391145,1
-2.7615385153819965,-1.904212367411236,0.0922913270029938,-0.4260867957351985,0.0191652196254539,-0.8900746355510362,3.470981104166238,0.798701625782432,0.5004344139017718,0.8312149735165374,-0.3955719042802275,-0.0229284461974093,-1.973422015281524,-1.2474996578437123,-0.8991427603009553,2.3354381514711946,-1.5040187433228642,0.6936103053531109,-1.2264805686258502,-0.0142043511548895,0.6555875054285758,-0.0850085393214174,0.8862438204782177,0.3396719149473891,-0.575482534128381,-0.027182174460294,-0.4959032849071802,1.0626279098338236,0.9883838489639886,1
-0.1435720922253896,-1.1181102004953607,0.7025355705182152,0.1086936483533344,-0.8658645430016588,-1.092307232154255,0.9750833962633416,0.0564630207133892,-0.7606486057632399,-0.4615535698087217,-0.120334081712383,0.3918618111335119,-0.2266828395862783,-1.4622437472505931,-0.2866120930312623,1.4194798496643408,0.4026663237338308,-0.5937789456414589,-0.7292848140197892,1.571420584302416,0.0891832844000633,-0.2053466783354928,0.6814267453083344,0.3848463831346513,-0.3086726012342056,0.0988767441741974,-1.3431650540252489,0.5516390200483408,-0.6911998941789734,1
2.0509039818114694,-1.920603094122099,1.7834260737712913,0.0255064530973796,-0.5431064323968747,-0.3467898385926372,1.0914411862423348,-0.1099656220060161,-0.0492338718172462,0.2839078089582116,-0.833163733396238,-0.3841385508191455,-0.6053754854004039,-0.8104312640627073,-1.2685226034487798,0.1968278688794558,-1.0511553859909015,-0.0958876469606773,0.3883244648790923,0.8966452085864592,-1.4044502409946085,-0.2801036348196464,-0.003266190448341,0.0326982009483542,-0.0327732400552025,-1.027888617624222,-0.6471712111356136,-0.0279735774927721,0.2930712949257958,1
-2.258495243155469,-2.2877659919665976,0.3252090629079085,-0.1819633683628484,-1.595125635339382,-0.8233125270868342,0.9381822044856816,-0.3718479377887409,-0.0189368065483242,-0.0343104581186791,-1.307875179421896,-0.6908493619673305,-0.1874601994688753,-1.884640704302624,-0.9439381942067848,0.9557657329004065,-1.4181926277332046,-0.2049338725242691,-0.8129891229555991,0.3433813107386391,-0.3920382156264498,0.5879323426999207,0.2482637487584537,-0.5149388665780992,0.2433146029593323,-0.7095679869206835,0.5765495885829943,0.1928638798685859,0.9905714350411744,1
-0.6133352739400167,-2.335380560210748,1.3680892734041243,-0.361228358822339,-0.4061400914956015,-0.3367700304559303,1.0834301346850164,-0.0033209638287444,1.3667040146913711,0.4034878418462956,-0.1754923234163699,-0.5764265943759436,-2.047436086123715,-0.000557754328782,-0.4282375177080805,1.5606706992328507,-1.598032284043828,-0.605905722782552,-0.3001762483640363,0.2854107604313579,-0.7298545068342919,-0.4947262141941939,1.116162343275396,-0.3617172530086076,0.1543577515893788,-0.1377240154144167,-0.2328575062101548,-1.3259937690589203,-1.2469895803640951,1
-1.776012542946574,-2.5862794328213767,0.8918543707285742,0.1356744689573334,1.537542215400122,-0.5857411032471838,3.426016848196362,1.2389932232742775,-1.4035744861190538,1.0064294809061256,-0.1678791848048919,0.0915466514662257,-1.6283327204294966,-0.6185951937428019,0.1165646081100857,1.939523511874584,-0.7709004396924751,0.8015863891562732,-0.6537465202282843,-0.5290496815133378,-0.3237938028064046,-0.1511391243059303,0.782727957020764,0.097587029565294,-0.3784410531449756,-0.4249586256815296,-0.0167321435892132,-0.2789307472752763,-0.1878316425722264,1
5.139080803234049,0.3319639593462535,0.1749803963354827,0.062673352258689,1.1879615057026125,-0.1591327971914388,1.8227640962970528,0.3826710482667554,-2.0646947550175936,0.4561011519654697,-1.1136496083258034,0.463388819192111,-0.1387797591776139,-1.1824159287727654,0.9918865581915396,-0.2890383073180415,-1.5220111705937795,0.0003933172449609,-0.2585113044924165,-0.2575670689749481,0.3128712419199106,-0.1629117274381777,0.0967161931284694,0.5480546989601662,-0.4855643675151503,0.0170321185010828,0.0249748834876093,-0.5294606970559771,0.2866543949305997,1
-7.357568667769819,2.3125785213994887,2.15958653312734,-0.0361320729106203,0.7564888463921999,-1.024340912583047,-1.718680766814308,0.7301606320361299,-0.8328414499679443,-1.357220256824893,0.0934308068816595,-1.227634965937737,-1.6492408392695492,0.2052485401356917,1.8935113945116293,0.8128747528729492,0.7160925151703184,-1.094822995509166,0.2610945476601232,-1.0532586684225076,-1.079726800087274,1.1553152771324022,-0.8665102589289532,-0.9909000599353692,-0.2059272593802404,0.1927258124705427,-1.8139310783375795,0.4453347540432765,0.0529935298680831,1
-5.519572713332108,-1.0541649945922151,1.5520110828385625,-0.1618606685059031,0.6895638839128516,-0.6509680978739183,-1.1535226505440173,0.5082379724796576,0.4401199117083093,-1.4834731798374163,-0.0683707678751414,-1.133192028683568,-2.13177026908825,-0.447686540891167,0.9961363095957364,0.4240262669961404,0.4267719786331449,-0.962281400186487,-1.229110209859499,-1.048685070639942,-0.4818688994015227,0.2665626632724507,-0.5416118611049834,-1.1939719083648508,0.0936324447979736,0.3088346551858626,-1.0078883717275144,0.4300871376838937,-0.1346483780659653,1
-5.224649414016492,5.638193403884113,3.9363834449700654,-0.4873516016027679,0.3808065969204167,-0.1350382480700047,-0.7765269945957224,-0.2477932692929491,0.1680740489518705,-1.485017145275063,-1.0018769854164469,0.4495418135594718,-0.7360910685378163,-0.5025088294100732,0.4862234459701897,0.2507881802349874,-1.1488627746578222,-0.3121719078478026,-0.1232664532946376,0.36194592686674,-0.4905424863709215,0.2100401965627014,-0.3102776419745371,0.2105889851233681,-1.0598957677173833,-0.2264760889240304,-1.364791767299823,0.4729327156633515,0.7891986765210529,1
2.810856080749954,-1.4456382857386036,0.6614121023081937,-0.0174743153168557,1.0591610546474974,0.156529141536455,1.434345422496694,0.7588307160737664,-0.7291868341925627,1.555843206164593,0.4417339761835118,1.7334946705406566,-0.5344979541404925,0.8138167527349475,-0.7175247469020559,0.7712597781597973,0.3452053747404313,1.2320182632582837,0.7069158103915711,-0.5945860761923556,-0.3371713905259587,0.2849391938832743,0.8520159726309764,0.2318048207320665,-0.16852482337754,-0.8130281865512919,-1.3106413750470216,-0.2144662752806283,-0.9379946784820998,1
2.737956070678257,-0.8240932635852056,-0.9022267371350332,-0.1616083524718316,0.1808293615903612,-0.0813136805336669,0.4717163172777961,-0.3137430276110665,-2.2536051337932608,0.8088371772797915,-1.062292779135984,1.7124421962059917,0.5250190800921386,-0.338983701497382,-0.585311694831389,1.2703792452879337,0.4008957575858915,0.8123902133617878,0.5895084241555681,0.3679136211966935,0.1534602529489286,0.618208196302692,-0.3680994768427076,-0.5735118102500661,-0.5487043897440133,0.14895812397593,0.630271293037415,1.6374520405600597,-0.1746362720065861,1
2.628732634508054,-0.5769908653390028,-0.6130814203807781,-0.2845587680643904,-0.809587920449507,0.1769424389894085,-0.4894125238969741,-1.2791625287109918,1.645770057896788,-0.9835305684425883,0.1713403016130388,-0.4564581660691684,0.4394126339056364,-0.7207683736798637,0.7203681872063394,-1.7319588885347916,1.0994897174517646,0.2852122897898252,-1.2762632358856958,0.3433540804624163,0.1709689658131178,0.6499111426170907,0.1647829431420396,-0.4823873669791088,-0.1476200895767543,-0.2653345704676437,-0.2818153103990439,-0.0576771328422891,-0.6588115309924655,1
1.0121976369955072,0.451386335663138,0.4887994846742145,7.486369223536974,-1.1208311057522782,-0.8021535160661306,1.0045341039938032,-1.879499526450645,-0.1531810327208417,-0.6426831646230712,1.0327719800121535,1.7452470730915657,-1.5151502256569138,1.404237276694098,-1.3926749318284763,-2.4679362524602464,-0.297187716419423,-0.6426230149465958,-1.0513669888692034,1.0109351861024218,1.526222460689166,1.1385487441658886,-1.3560342215379348,0.0983307580011424,-0.5482042403594866,0.925478362374366,-0.106065781581446,-2.0294326634066606,0.3192059279695565,1
1.166443014998063,0.7762929032762662,0.5553405889852059,-0.9086276219976652,0.8221150347376692,-0.5707503679862959,-1.4969222040848853,-2.912720125201768,0.7797834038138745,2.212491753682251,0.6526389566810037,-0.7302247828654731,1.7062161398090647,-1.1332675307317488,0.3280576600728175,-1.1956086522463014,-0.311808144210244,0.6898702563736895,-2.6344501917791505,-1.5934384279787055,0.0494147702531291,0.9075567261000096,0.3971978601109769,-0.7190872655668672,-0.7708452349682614,0.4510840926214418,-0.1409928676016717,-0.5481270668751419,0.1571138721394167,1
-2.3156797566017406,-1.7931322193047463,1.6816959177528503,4.212057116153611,-0.2325053097701238,-0.5088058979671132,0.1347086638047153,-1.1018955454688937,-0.4633741252520096,-2.197468812002474,0.1271106048591989,1.0683302301374482,-0.1125582470674454,-0.0144828140705307,-0.9276163498565452,-2.143807837511892,0.130604829732533,0.4352942881126497,-0.7982997292823084,1.2663634475681471,1.470793694186151,0.4970643138862779,-0.0338577111753645,0.7047772915081089,-0.0232348872182121,0.0446346001567398,-0.9132783441810512,-0.6254624237607275,0.5781073251313752,1
5.8295890577205,4.458849432901341,0.1554140117151283,-0.4890129271160476,1.21605701188093,-1.0222015445471988,-0.3815650234081558,-0.7150532259790173,0.181862518282858,-0.4705707834224786,-1.056113579677363,-0.0601275167434273,-0.591729778980517,-2.274256138613905,-0.9299278935684304,-0.6197074992245939,-0.4018512532563267,-0.51457234243326,-0.1412801529135559,0.0948894746424639,0.460321233614755,0.4695845662533133,-0.1545691209603014,-0.3655372989410889,-0.9247256366237442,0.3036213244804684,0.2829304924471907,0.301129558761091,-1.007822295921899,1
-0.0792024359511728,2.036183193661019,-0.2380930308468292,-0.002294500392315,0.6699991496482877,-0.9378467543797424,0.2195150986861696,-1.12511146233912,-1.785364466023637,0.8437831101895932,-0.7324651981514761,-1.435161781778643,-0.0404980194505966,-0.7463440454916165,0.667516926741754,-0.5101943231365716,-1.561183060690885,-1.9163878380954664,-0.410320857876073,-1.5297106183513665,-0.7189759017531724,1.2809817247348905,2.1440821122567675,-3.623582665060393,0.2252263031593402,-0.6361587340952687,-1.929443414213318,-1.374469571506605,0.5233308502737692,1
1.2160406979932297,-1.6619719358049565,0.9901157504740636,0.3346995291082147,0.1112417558738841,-0.4440425605624594,-0.8995079720000129,0.1995326610686211,-2.2578026096048536,0.4008126492711084,0.1611165695608453,0.6523480687332387,0.1058751763276489,0.5855386689447135,-0.0536208521188815,1.0221415818464734,2.301078555076769,-0.0838487634061113,0.1502655242215153,-0.3134322940409341,0.1154516714919205,0.471023353961445,0.8793269543712091,-0.1909927923013701,-0.4128537826653706,-0.8806562832431372,-0.8695215867239947,0.6919307799092549,-0.3981910418859387,1
3.9616593975192,-1.0791330041148957,-0.0798256628459737,-0.2355388999535322,0.1851567808290916,0.6088010989586032,-1.928334479455456,0.6095599237589023,-0.5087026167221536,0.4809740187362176,0.0538605504614363,0.1361470303332851,0.2372576795277679,0.4596388517200098,-0.1085608171908233,1.936945970782698,-1.6099796226449763,-0.9621816582790088,-0.1375736676282285,0.3720267893036991,-0.7464986012103448,0.4157584219764195,-1.1207601480724108,1.1105741112023202,-0.7357735723102804,0.4000834652748368,-0.618295077334883,-0.872751593955553,0.069605489223895,1
5.5157590726988905,0.1251354230207843,0.1940488111908622,0.0488551202046192,-0.2171347817324536,-0.1714602382767292,-2.2213699646712834,0.224487754021596,0.6491861924705584,0.400694081054739,0.4735576220052685,1.0537816916520926,-1.1247121384836225,-0.8125331885532435,0.3630521378489998,-0.8250218646334792,-0.5482960746196505,-0.75820991501174,-0.4101923248216079,1.0416115277830644,-1.0135645415007752,0.0839473766894454,-1.3382285713583435,-0.7369360267942564,-0.5403437258982499,0.7438176541781227,0.0858070103764048,0.171967541127968,0.6267400155187131,1
4.604935611816448,-0.5640261306670844,1.6510468589465954,0.650880343260322,-0.7023524551722811,-0.5921869830475862,0.5753070017519155,-0.0932683519193312,0.0850430176525004,1.0566866237801031,0.059508127756182,0.0177099406285266,-1.4678705573310178,0.7408119913025936,0.2220247417805366,-0.7316426600103505,0.2781370208094492,0.4184090450087021,-0.1026066796766649,1.2518898445993958,1.68565049381204,-1.0746750734462776,-0.6672826680372096,-0.2438437164328924,-0.2686011865220679,0.6410452953741038,-0.3367737589424923,1.1730116957335477,-0.0417429514173165,1
2.088801015070892,-0.0224586234346055,-0.1100555898298562,-0.6133378799033496,-2.1764462790826262,1.3820243437636217,0.5269481269306604,-0.4769396177140644,0.4690317794722675,0.7581633063192037,0.2039329099355066,0.4246883979405876,0.1936307619406147,-0.1772786172570671,-1.4262082281036608,0.4332741308434123,0.5487941776841239,0.0329233734069158,-0.0488652452020027,0.2597884292860821,0.3540201783941666,-0.2184068005779449,-0.9980054699375231,-0.5397777900493829,0.4002311239051702,-0.4983337637756393,-0.5865613989457957,-0.3331593404181804,0.0952104832278934,1
1.1888782641781568,0.8203453391270383,0.7242092962989575,-0.1739929964536238,-1.6665188120211871,-0.8596206319776581,-0.877871613943933,-0.0927192281705004,-2.202488329044957,0.5818237069249146,-1.7144897526701304,-0.2307453243207864,-0.868858449545416,-0.6503341808637532,0.1064758997858286,0.3135468393669482,-1.834316693134076,0.1752964624981807,-1.4443802312996428,-0.2267931292512696,0.292770207805785,0.0011975840817533,0.5726256551493615,-0.1246064408538344,0.6133269813834917,0.2985367821466166,0.017336956746559,0.2062277523149202,-0.0246331430198602,1
-4.702037688046299,4.299218562423839,1.6792315347349174,-1.4612867847906998,1.8476895322295164,-1.4118252151364743,-0.9535844480177323,-3.2503569453390484,1.4261582145852585,1.1350284321683306,-0.597016179530062,0.3908510184488669,1.3223724892343836,-1.6909155742514446,-2.1986552950657727,1.3989890965019458,-0.2549468882004388,0.8215906485234228,-0.4664458331727589,-0.6245904284905859,0.7775726723492351,0.5554942954486906,0.0554493813601899,0.7523937520008283,0.054606832101997,0.3259320545019118,-0.1003881761530755,1.144455958560775,0.8117315878142987,1
4.7842202461871,0.1564413467386841,-0.871233977894356,-0.3920252430288128,-1.1390638125532642,-0.3228283612614638,-1.0210243899958085,0.1654428359263276,-0.6005671572517756,0.5562325665524523,0.4670431882819278,0.2252788445448419,0.9613427100215424,0.0316632878092584,1.3881190845900684,-1.198570486684966,0.4020116218304285,0.1519585788888008,0.0035987568603584,-0.8115898430811843,-0.699238973153991,-0.5269399697530457,0.1514776574956231,0.4420287279470036,0.2413008796618209,1.3455902657586023,0.6816819322868177,-0.0899427847800888,-0.4884137779915569,1
-2.1320746588327477,-1.032147490228258,-0.1763473959406588,-0.273254348700784,1.653975642766844,-0.5609966033418918,2.6716947543003227,0.3447011005215674,-0.90367969002698,-0.1794164342068679,-0.8315566697943364,0.5990584800253016,-0.492500410120306,-0.3694280815003652,0.4004507782765748,-0.9385692142366784,0.1890330308667185,1.1867131835771902,1.0892196016396385,-0.4502040992915229,0.5217128847468523,-0.202624562680905,0.2953603033207523,-0.2581542330535858,-0.5124345944017853,0.6147901760385435,-0.0872985205467704,-0.445650156620291,-0.630067479746315,1
1.0592593050701915,-2.042773443750456,0.2023611056446616,-0.1921926523004725,1.7525171006476872,0.3188314342380057,1.5720038977744648,-0.8097148829729317,0.474929653329132,-0.9410266743790822,-0.5033978594016982,1.4133249494754816,-0.0503812794812739,-1.291880132953818,0.7264382706737726,-1.6205495772069205,0.2033735360652864,1.242920820434272,0.8484970921786936,0.432884038882022,-0.0061862137015119,-0.1597174156811205,0.7833619806202882,0.021150051304348,-1.249741137252152,0.081757374089075,0.0800758968495969,-0.3628371369580796,-0.114707803580148,1
0.6835945898294784,-1.7968332042512134,1.6099703074867784,-0.0025828493083188,1.8409466763894828,1.495790203754733,1.8075538844850807,-0.0067461298564525,-0.610094584505998,-1.0897225133197317,0.5660197388681534,0.9172436872720048,0.3318299582849351,-2.146516704051299,2.046768546695405,-1.0090552336230347,0.6380116553522623,0.8760662723660387,1.4922769692797888,0.5472319148945233,0.7921283325569611,-0.404434402085559,0.785664722288556,0.1872661632672785,-0.9803939426662924,0.3699218850414801,0.5594317356067778,-0.7004141347750387,0.3537299523245537,1
-5.528663939964187,-2.709529114812958,-1.117501061570905,-0.555404234031613,1.8372880537962128,-0.1717027561932496,2.243885541272608,0.890138630427769,-0.6562517331123396,-0.8676866103642484,0.5048860552156454,0.0197448735051055,0.6727864056443278,-0.4652464786730835,1.9509011990113605,-0.3652495944273159,-0.291704135790473,0.6160816923168547,1.2312675459152829,-0.8031930249488685,0.3019092459436704,-1.3556717328914885,-1.2115216901749104,-0.3101120682621947,0.1706053839181978,0.85918008443481,0.6463046940773376,-1.5674189381293913,1.344183698344637,1
2.4599872325106045,-0.4719959921503902,-0.9526226229620331,-0.4235891175252969,0.495535383335334,0.8318014075648565,-1.8000975715978356,-0.3121214463922047,-0.0856343054984143,-0.3607174505795444,-0.4074557980388549,-0.3175237792078708,-0.1600324659851213,1.0357150682169118,0.559444392384654,-0.0443967101502997,-0.7626135248463161,0.0803231153559653,0.3493724939974473,-1.1260693930533126,0.0722947872726437,-0.7415559515917789,-0.0493904165025403,-0.1878823618680299,-1.1448720372258638,0.659403557819875,0.0919188208285885,-0.0301868926981419,0.3001713977458126,1
0.7149630996173338,-2.201257255795809,-1.03725595054037,-0.6660262921510913,-0.2469917027639273,0.7838456799742448,-1.80549352323411,-1.384972158846664,-0.1894040721998115,-0.434535299493698,-0.4950022345892029,0.6792570617920183,0.5425474366383358,0.3636335920135301,1.4219651683166423,-0.5106592853971992,-0.5469443755443975,-0.6371895934628352,0.5833803982871334,-0.3017025977479229,-0.0668345850243021,-0.8910681106731544,-0.2004095507812078,0.391670673099048,-0.2549258684613021,0.5735401995768566,-0.0222724311269952,-0.1748383738846347,-0.9504206178971352,1
1.2473786166051162,-1.7579740307312377,-0.3833619049376245,-0.1562967563945239,1.1596556532449045,1.2011089954705425,-1.3742110154987135,-0.072169550385257,0.6168326712916878,-0.5461809226437128,0.154338923409957,2.3592706753608748,-0.2194503510251858,-0.7456848615336821,0.6527047267745772,-0.611142225698428,-0.2366548364673453,0.599411849057415,0.1125850484912379,0.1163733322176485,0.2519281768049333,-0.2937331861539419,0.7661653633356796,-0.0544602180433426,-0.2324637468212344,-0.7980152835069619,-0.4192733286045307,1.4703124999345087,0.645962250981129,1
13.604545560908983,5.267980960288663,-0.069634229795123,0.4817478828714526,-0.8067310395290787,-0.5717185342255475,0.8514420962241505,0.7788573316147033,-0.8432255225637572,0.8635290602796345,-1.226735743343944,-1.4401290504852997,0.8732329979383199,-0.1209484002588396,-1.3815930753545689,1.6265954689337454,0.4822189869464848,1.9918670573051405,0.5361660079243634,-1.1583550266822626,0.1752210583121155,0.6426257783464662,0.1565417160140231,-0.010031922250716,-1.296949092139125,1.1252824557670915,0.5303988702816704,0.3206902866254041,-0.3594004275434875,1
4.823446064744418,-0.4109930551810197,-0.3076561996522756,-0.3697717334239187,-0.2750018473299875,0.7025229511087193,1.712095752012058,-0.978586426281311,1.9771724278996337,0.2834860661236922,0.500738730299985,-1.9560325748795448,-0.1299888835837842,1.0232788630496863,0.3658424817165353,0.3839475264530374,0.0909791177002544,0.0883742112648066,0.1332213553400515,-0.4757442599492872,-0.7494686596535652,-0.5772554809152846,0.3463372760829608,0.8180978612638443,0.1970545788499644,-0.1594205195898189,0.6229968603756338,-0.1855664341875048,-0.5536664818025472,1
-1.8559174545866248,-2.6652229352130687,0.3027573947384508,-0.4395544206721726,0.2747793224358287,-0.0451671757157193,0.0497697777840553,-1.46396604053641,0.6560254626178808,-1.4668534106207474,-1.0721693910912853,0.0708314087870973,0.5657670357881133,0.2505136161831718,-0.3965593356757487,-0.0667918556482049,0.6726010060995057,-0.8668517699040073,1.9310807684690716,0.856734326222533,-1.103310229773978,0.0677557872661333,-0.1636149410021148,0.2067809583874314,-0.0325531343040438,1.0600844648678336,-0.6729330098725446,-0.0770011144501811,-0.4969353466684023,1
4.796148560249139,-0.9629931594465422,0.6320973342616057,-0.1017683559882892,-1.46061255577754,-0.0134715885112041,0.2725813057851973,-0.5963014150915947,-1.2124394243756556,1.5318900874843968,-0.3024002493564636,-0.1546382243448882,0.9989268290710016,0.9568882501256176,-0.1460164386415908,0.7650771508802119,-0.1190743576793825,-0.0200286577743191,0.9325807197502493,0.1103672462361753,-0.4070556788384844,-0.3215319758755375,-1.0048113005581096,-0.7867636246466065,-0.2877711022341166,0.0841291583768924,-0.5266815151967265,-0.0451590929017381,0.0943789007082133,1
-2.6014308699601427,-3.328892940848019,2.6947903468306023,-0.3533064397929951,-0.1554061436536968,4.77477722970998,0.5540048209487741,-0.6080829840241897,-1.8765623680966976,0.7459330594446417,0.5349800427122354,-0.6215053347012381,-0.6592323108948713,1.1435501222571318,0.4909558801322208,0.4509912104092694,0.7779480490338989,-0.2656384883497804,-0.5201565260629176,-1.2923398403897182,-1.2298805550151328,-0.2766436268980399,-0.0041247025971983,0.3966704064100855,0.0022011187280117,0.4430502786857208,-0.2785004437324274,0.0028358294948041,1.382390794861342,1
-1.3110233445840356,-2.62442092971177,-1.4208836680723105,-0.2111071455609794,-0.6974110216783248,0.341820780369798,-0.230851472535669,-1.0973861639298972,-1.5275283019593124,0.3419050442881813,-0.1197309608386753,-0.7031033462086522,1.3277920248653556,0.8484093643537054,1.4409130314691,1.2884790345887251,0.2785022678820689,-0.2017769068492003,0.4892862821590398,0.029540911184861,-0.6285358179369942,-0.1113870594517514,-0.4096061287552607,0.4763803497727569,0.4079416109407096,0.2380307601640214,-0.1478576773454913,0.3655221854788507,0.4668629476882115,1
-1.4773309951508728,-2.951988526565984,-0.8590247214246259,-0.5299523279829705,0.1659055363476189,0.7660417531325259,-0.3842437389941801,-1.625057850619891,0.6265592350947803,-0.9350285562697518,0.0965802112203769,-0.0204009068147455,1.0616368744200422,0.181629501087433,1.1043584263040458,1.0349091212849435,0.2325762342837845,-0.3022296529344083,0.4772139209586074,0.7261988959539597,-0.5552559837558195,-0.2281246822659522,-0.3559802326056778,0.1961589092309106,0.8928738870356676,0.3786851179618828,-0.5389609309841424,-0.0830851321916068,-0.4371452526506885,1
-4.113730595745203,-3.191525384003666,1.0189489275766015,-0.4404647733276463,-0.4227570594892636,5.864004025168925,0.8986236764952429,-0.3028899039207787,-1.6731058677218686,0.8344597320616889,1.3640949628373946,-0.9719660270989976,-0.3377008564064741,-0.0139510788967235,0.468980500780958,0.363791467790601,0.553773780892243,-0.0234556216390174,0.364977395645442,0.4917112102455941,-0.3680166113295002,0.0294769563506667,-0.4075735310735213,0.4011513802072274,0.4286450299895327,-0.8833143836797208,0.3305371770383548,1.2343107349914064,1.202454303425881,1
2.644798411594397,-1.760653422728535,0.6516842850972766,0.5228464934068997,-0.8254615218146496,-0.2342989283776766,0.0915569060927325,-1.5233866531237186,-0.3372139930613635,0.1744040037166537,-0.2652607642220858,-0.2079503824313228,0.7574588606309166,0.1995178105262384,0.2326056635741738,-0.2424662385383535,1.6174850396020033,-0.0425013204751398,-0.0390476933794074,1.6997275294663152,-0.1926708832839261,1.0017014771458848,-0.5096970301870904,0.1041223882001961,0.29955290191771,0.343186375394339,0.3252835440423522,-0.708468399867887,0.0565553621348912,1
-1.239148061297055,-2.663697608637276,0.8433671233807493,0.1953150387831298,0.8853657160087683,-0.1555566471952995,-1.192192916696274,0.3989513907137254,-3.1938853989363047,0.6286042672986655,-1.1804732812574057,0.503191120502654,0.1722102421137416,2.488678392163282,-0.1000696699628363,0.6397709036198286,-0.0278107094354335,-0.5025164758543389,1.8555461032413616,-0.7555018781747314,-1.1255036202877509,-0.2038523799396965,0.2918221644786093,0.8905111231846192,0.2721571842680583,0.2033490275641191,0.9846722529832428,-0.4229429262061446,1.204184362261047,1
4.733351122764256,-1.286865795912861,1.3031932277477696,0.0238328864002954,-0.4870405345736406,0.4038491939478685,0.4864400726617667,-0.328035315784155,1.6346304974848624,0.5786950977474765,0.561064960438699,0.3217214662671441,0.5731490585808654,0.5906839561902062,-0.2082952174144952,0.048927136492354,0.0559994882807232,-0.1548375294759108,0.784962124457007,0.6295457494131946,-0.9956076653909292,-0.2057788167224553,-0.3398055636313801,-0.2531178733519875,-0.571788641258754,0.079368213063895,-0.5033492382589367,-0.2557650593313701,-0.1632408566511747,1
-3.0962615454295106,-3.0933015426907544,-1.339358143500644,0.3171344746867217,0.4090435048952208,0.2578030860638231,1.8716076661608667,-0.7812203670051475,1.0107779943481785,0.225410809017757,0.5040572312117405,-0.4670416984132532,-0.4566360951761023,1.3705333916499438,-1.0266178549046654,-0.0824214850385085,-0.0906877278986488,-0.3737094036496639,0.3107073294887439,1.2387112373941327,0.1084697111820588,0.3847647480346681,0.4850016818377385,-0.311110992363549,-0.494132156210874,-0.3315535194702402,-0.1844000011257967,0.1508669460941737,0.0881888657126009,1
-4.087383062238224,-3.4639560773994105,-1.6662989299690047,-0.2557330648046597,-0.5554524003972134,0.2631295663992535,0.2535678247043454,-0.7203458097877656,0.7179019068218093,-0.3624740889137134,-0.0700898882261952,-0.4040456173091756,0.8060623112011468,0.1136257390547867,-0.8919365464326101,0.1922376271291376,0.4801322015481594,0.1261358322489616,-0.8082985528389393,1.0301679124719874,-0.0887676417227657,0.8820565398057278,0.2721794380641662,-0.6277592269369628,-0.1793163547110754,-0.4271052071333359,0.0748817316197437,0.3246974075922613,-0.4403081018142523,1
-1.8497186906599623,-3.656172491108968,-0.7150285738042,-0.042271387061256,0.2537385000244813,0.2868842573279745,1.18467662593073,-0.6087803715244338,0.3441702918427201,0.5485231210444175,-0.0374738110205565,-0.2603128336415599,0.1152236515577448,1.118952743057533,-0.8951696928546045,-0.4206395266058192,0.2872633369174962,-0.0424615775715776,0.3280979459822845,0.8078730146692674,-0.890677138051372,0.8082248121828066,-0.1517314536231232,-0.2389874749943982,-1.0253103009563351,-0.1021751899514324,-0.2935058898857414,0.6178754172736615,0.7741391152906589,1
0.6824653526707546,-2.292471489555365,0.3108766368953561,-0.1895099127772859,0.9291775838012402,1.2774446209986217,-2.9101598567307465,0.2328505723161049,0.0778597232869301,-1.1378070085263692,-0.3019196260871077,-0.0912643998007973,0.1443246107375337,0.395765266853013,0.5456977806202196,0.6755448908497284,-1.244697786452999,0.9495209325959676,-0.6014373997547562,-0.6157905551007253,1.2863179104760898,-0.3236543047303397,0.0701539567463806,0.619267231396759,-0.3306902226174087,-0.0539241257964859,-0.505548955163644,-0.4445107422627957,-0.0466017289589462,1
1.3919489132037444,-1.199435346618901,-0.2505160985167741,-0.3344711742709769,0.3120901457859159,1.866124452143808,-1.99311014501188,-0.627233735126652,1.3496892557012146,-0.4454126759418317,0.483093892462994,0.6156686081778635,-0.1620621093298091,0.1703364405783979,1.3135280963664788,0.0221213838678162,-1.0248371961644955,-0.4482509759326436,0.5672445029901334,-0.1327481601372772,0.931012813931246,-0.3652260590947382,-0.6891251085367666,0.799454471890381,-0.0137562591769731,-0.3011116624998545,-0.2852647479204184,0.0428568518358837,0.6206138118960939,1
1.124502226375973,-0.118432437201192,-1.188311806019663,0.0381527425965527,1.3781247241065202,3.346326564441441,-1.943876506570057,0.5339882243961478,1.7501436957302896,-0.0241188526989092,1.2621517014315933,-0.9764804976305064,-1.3333845064328729,1.5000836936970428,0.6459717512190848,0.7712603701035076,-3.007686338336433,0.505182044163801,1.7736768992099132,0.8500724093464657,1.2219468677884078,1.1918710434520352,-1.131202359542397,1.3901731671772048,-0.7892568857528665,1.6988764316272371,0.1698776359534218,-0.0216643416805651,0.505943978680987,1
-1.3314079999457529,-1.773612015356472,-0.240963994650819,-0.5492496184287249,0.2496425261537183,3.8969897933829114,-2.621949019906568,0.3546555856928051,-1.0185903691638651,-0.215039028267116,0.2428584717867477,0.1792064181123656,-0.3733132202755693,0.4535644356426465,0.1582030550305641,-0.0623404703579323,-1.1326790738776078,0.4435037171896506,0.8188062680738551,-0.3438755357028115,0.635174666010208,-0.0631905489048618,-0.5438579113124912,0.6478045109068875,0.1181783182818484,0.0352382754211236,-0.7022496408220844,-0.4489619027644033,-0.0093865242513282,1
4.335108695438665,8.39241508503136,2.878849690663912,0.0489174050568518,0.4493747613031337,-1.567823505692091,-0.4960656705766286,1.7522656464838338,0.8519683184487917,-1.907933860714444,-1.228089534699509,-1.6226169834410562,-1.3260587367405028,-0.9603296293846412,-0.103450930888366,1.2036230117094542,-0.0562920440824338,-0.668850398974,-0.0265841533153065,-1.0816008487200364,1.046778352476616,-0.6267214553526432,-0.2566361247225233,1.1121291213385864,-0.0378417521576029,0.6995244458656789,0.3758792359502375,0.6515348032613217,-0.7149626668839204,1
4.8077953176698704,1.5653823069390451,-0.4364595930765305,0.956397706630286,0.5426721866145279,-0.3297815946403871,-4.179837334622637,2.1135977244126187,-1.590467090521814,-1.2912630022230671,-0.0200463809205814,-0.5269346932287056,-1.9352917740854776,0.2223274224760149,-1.8212158783611767,0.324217787824763,-0.0205878555882426,0.8690172136692856,-0.7310119530819635,0.1092330218140631,0.707353906731004,-1.1407546970919489,-0.5461386676090199,1.6825861959834514,-0.2455203049531329,-0.1824641235529217,0.0981103874553295,-0.4056737765354616,0.8936053183918623,1
3.5142214259650104,0.6683886413755799,-0.1830897154336977,0.8793677423555887,0.1208683853143919,-0.6015809676268087,-3.8417580339939694,1.3456439051709028,-2.33419181317326,-0.9315422444009792,-0.3190065583269827,-0.3885397406050451,-1.5545380463279117,0.355929770387429,-0.5940723919529076,0.1677378625317874,0.4453698173061687,-0.3185200269112209,-0.5948203523532561,-0.0309142057499135,0.2487094967965936,-0.8201642601284632,-0.4862480110959739,1.282774517931081,-0.0780938658618296,0.4677882609264608,0.0090047112272904,-1.0115518947950344,0.5329651072579281,1
0.4113716216417434,0.1232115294831462,-2.0358327132730167,-0.4527169639185697,1.134011222306512,-0.453902831712106,-2.4015715016679784,0.5092281140773851,-2.2145586405314224,-0.3996381471996224,0.2162600253102724,1.5945199616358543,-1.700710735630314,-0.8349702857620775,0.0403795514340918,-0.2022879641392663,0.76451899581023,-0.4636888504993888,0.8296372576077016,-0.19922421783433,-0.6235532248199356,-0.9443068727980554,0.2896628146769116,0.1174346194295442,0.2346697560438104,-0.7513341061191817,-0.5613989496293466,0.1114506365337669,0.5525280545784501,1
4.324880016770352,0.3644870473913254,0.6305936117586443,-0.2373972293015883,-0.7131471544180802,0.1857154307798708,-0.5812492369056669,-0.1687228141802939,2.5775473116994743,-0.1124227989533373,0.951965865419644,0.5551832993272621,0.6148008460966716,-0.2484901917983893,-0.1178555462077173,0.7967973679403378,-0.01153095835171,-0.1396563237103116,0.9010173545054362,0.3064731108029421,-0.2172887915001531,0.1174308625622676,-0.928487918143905,0.1667844664952017,0.4743830451614354,0.0754241284815036,-0.4327592419624924,0.3512529676951882,1.6114540677491562,1
0.2264952443052571,-1.5639421681078804,0.934303994166232,-0.3752536218582759,-0.6789066844104512,0.0209490761191772,-0.1529439363595989,0.1374351873849279,1.7880452218971012,-0.2844378032558937,-0.4378808739238531,0.382430929459101,0.0158278092975541,0.301006560388068,-1.8429907984769207,0.731321298413327,-0.7786212562057071,0.2369802838028274,-0.1983035666091328,-0.6753721967125874,-0.1869246786279988,0.0319470130097845,0.2146859612346977,-0.679164317189339,0.815863764724893,0.1999716620656734,-0.5784118863075708,0.3722848803373338,0.9685469934751996,1
