Feature1,Feature2,Feature3,Feature4,Feature5,Feature6,Feature7,Feature8,Feature9,Feature10,Feature11,Feature12,Feature13,Feature14,Feature15,Feature16,Feature17,Feature18,Feature19,Feature20,Feature21,Feature22,Feature23,Feature24,Feature25,Feature26,Feature27,Feature28,Feature29,target
-1.944044484499801,1.8913098172739777,5.378017300104961,-1.099764397954193,0.31999820164555837,-0.10799011111920628,0.19299799586814848,-0.5315877359983646,-1.9783579829194908,0.5053060613919885,-0.5699830543127711,-1.525391237097537,0.2604597409972303,1.909798292299188,-0.30754966738932427,-0.5338058157863258,0.9345651122872528,0.15520588703568738,0.43592299922619127,-0.8684621773471581,0.43583809227765585,-0.37577678239801143,-2.410483920227392,1.3073018574055124,-0.44709058891602327,-1.205612916339689,-0.7586683168069912,-1.1155278139438338,1.219781958076009,8
0.548890317832228,3.6891458902761483,-1.0792154851634548,-1.1254974915954712,6.892609806957398,-0.1140863671396798,-0.12983336975527202,-4.471122592834472,1.2817065340945542,2.509006710435167,0.01330898291278492,-0.5146062860982203,4.098260881867957,3.7834477629342884,-1.6738866396570538,0.8824110365765334,-0.9311780047734526,-0.8524355195237884,0.12268092509375814,0.4286534252809703,-0.515136024966212,-1.8149374854908982,-0.6597527793156346,0.09201429918027738,1.1734486845278154,-0.8870147560653496,-0.6576840446635217,0.6763395916072462,0.3790526464824545,8
1.0447432183398102,2.804072997996983,-1.7791216139469164,-0.3582107401679216,6.132624121067576,-1.3093961522232396,-0.7313162131032,-3.381683366321401,-1.4447343283402914,3.028355390487993,0.4852398485772606,-0.3067251009525066,3.6163603074117567,2.5770380539337667,-1.175524305398028,1.8971544072005404,-0.7147441426306328,-0.4286560533491329,0.34615394759233076,1.1271498402041953,-0.9288727359748733,-1.5922030643277651,-0.38995251645107026,0.3435266106762126,0.7401599442517159,-0.24434055285230893,-1.3371287595136592,-0.1682813270683005,-0.46488042872833635,8
-2.8487433931855946,-2.220173786048319,-0.4987969809263343,-0.05454708509488912,0.07340585997817405,0.9275169760578161,1.8918074308705783,-0.3815484990482384,0.017550952810545525,0.6594934714904098,0.8173766244733861,-0.3574057614759239,1.9789035154593033,-0.1856672662713145,0.936922699912927,-0.7012234410956594,0.8614570028416331,-0.9101517374442569,-1.2992758751705626,-0.3989177834640929,0.662053882530413,0.6713059621583767,-0.4630034475050319,-0.1705162743485757,0.24981640600447716,0.019505454404113987,-0.38088884903044257,-0.22212691934668932,0.36485115104632426,8
-0.7156281186631881,0.21736215833607284,2.032460744354741,-0.1448257431364448,4.375659662846361,-1.7620258102999282,1.3359404865363336,1.7427209481172083,-1.771379122515337,0.8196117294643485,-1.5353830912060908,1.0435037450661184,-1.1062514373001942,-0.28187559457785927,0.7760429239045233,-1.5995054732519758,-2.6661758712472174,-0.7399489924928202,0.23071190069001452,-1.1282509050578313,-0.4283523922869236,-0.5110738425590419,-0.3464225257059458,0.1376218558746824,-0.2893252095803107,-1.0893435780048735,-0.40755550977024585,-0.007070946830015518,0.11759959093047291,8
-2.5627191747959333,0.7929458515213648,0.5245502130482594,1.5535266225867446,-0.4528837714095555,0.1201295714275425,-1.1127551301994223,-0.8825256656221552,-1.4606329646435376,0.6315976258054811,-0.38593848107401485,-1.3776785020656068,-0.3839240717068565,-2.4784656999060566,-0.08720912963032458,-0.2553321178447278,-0.761434397914366,-0.06131516790327956,0.15400941733025894,0.39018377554934003,-1.4928639328881321,-0.2624906612486339,-0.7958270255938091,-0.9674293572290257,0.2611796449451733,-0.008816423224637366,1.7034485833804236,0.23956389344672818,0.053844667376781966,8
-1.3935732029003454,0.9032325583060369,0.6037881310272978,2.5750250697706143,-0.13177552013712548,0.23000130751017836,-0.8157655106713808,-1.1645559720962806,-1.102114165711397,-0.4235084359751395,-0.5322202026537407,-1.5657557050837447,-1.2200094848427037,-1.7483990285557587,-0.5380655289263145,-0.09758381526082717,-0.7370998759769896,0.2491179379213688,0.2400518849622826,-0.02906809162497013,-1.813531157854365,-0.5350162783665606,-0.7861246265007774,-1.3410270377155102,0.428844900836834,1.106467447420104,1.9531055753195774,0.08722007019889215,-0.24575952382549143,8
-5.293565273157572,2.465475330186505,-1.24126751717235,-0.2854404672313691,0.24895168681967436,0.23149702067287709,0.1869336120742494,-0.5734140181817888,-0.08497081387855747,-1.9222575849244259,1.224073899225587,0.9225877276812513,0.30131778680117766,-0.20555241026873525,-1.2334058134452643,-1.8589280648669002,0.2657496611813912,-0.9657133750249078,1.1953742888910794,0.15383455629804738,0.16455586419826604,1.7773061394317102,-0.5617532564922112,-0.29422283170031666,0.12128901127892125,-0.48235959215774205,0.2905833064879315,0.6079605983274348,0.18948828682035151,8
-4.764606919154088,3.0276278655901074,-1.014297875110471,-0.7342226375487311,0.34282621391362506,0.7736073507844589,0.3851512484244937,-1.020189661870565,0.4453890343475988,-2.34091668997845,1.8971748146039054,0.28561898498639887,-0.7697991607533321,-0.46137214697846124,-1.1092233456520497,-0.9950770436796375,0.09289680598072722,-0.9938002465294314,1.3218999941159761,-0.27884240334961313,0.7519381629752799,1.6916784312094826,-0.5974334618749464,-0.4116546790711533,-0.3866137547947766,-0.7004283833911735,0.47600425889045894,0.08992557497650407,1.113891902582977,8
-5.898959905240524,2.581633257960199,-0.8262829323601779,-0.035271149647548954,-1.0861351384949367,-0.6648204865487898,-0.4009578423390838,-0.3465275563336832,-1.809928700496341,-0.5834496833964247,1.5663894365843065,0.6477192866584454,-0.10437813893161572,-0.3368057987219993,-1.1194433459778579,-0.3774954395161551,-0.3058459368260216,-0.22740494996050561,0.9327750839027723,1.0796353004591708,0.5449488199831141,0.377865178643861,-0.8065159551142308,0.017417341396071,-0.6052575892015319,-0.3286759256255869,-0.31317179503866793,0.2832250605212748,-0.9943246693326929,8
-3.2016420774910235,2.4972321688986994,-0.39062530388955663,-0.5642501575703898,-1.5402033126169776,0.11878235421003588,0.14263942480798342,-1.1526129557929308,-1.8444757142352362,-0.5648795872802679,1.5666158640895171,0.24812231739438045,0.06814179691857529,0.11004785211549238,-1.0165166402213035,-1.1737268608703686,0.7814365179421148,-0.26904765653735774,0.9469268223751568,0.9149280853328458,0.03786195794406677,0.890817483934702,0.022202593649420996,-0.4985238391863834,-0.800761216818736,-1.181533418696946,0.19091463879521683,0.31264224915849387,-0.08890644569780923,8
1.780873204690638,-1.6619160713036736,0.9122598844261358,-0.6967721315166354,0.1767985363727058,1.3005818449577968,-0.25840806931557114,-1.0846082550355698,-0.7130010986359695,-1.5377779111420335,1.6833176294902386,-0.160877692507708,-0.4537326355459493,-0.3954529629345387,-1.001170491435971,-0.6547131923514946,0.6409629257335895,-0.34883126490466926,0.08511548746022662,1.5773476991966093,0.894975683905887,0.5014322134264763,-0.07964988323941277,-0.009339457092543808,-0.35929425960461076,-0.6945149141530744,0.24848352831224035,0.06978677158441401,-1.0895663058575553,8
-2.227353158205387,0.515277697689233,-0.4981572309878277,6.325419553013128,-0.9804537086117697,0.23156588937253939,1.437881005291245,-1.719800394357243,-1.6018630952967636,0.033028176509318136,-0.2672217160109097,-1.954106465696675,0.15031234932112778,-0.9180182327051626,1.1663934680999084,-0.33177534397866243,-0.6685534531969424,-1.2294498444936652,-2.009117650528917,-1.5292373037964857,-1.4381311864856576,-1.5860795997216715,-0.08801477144214548,-0.28010976671587656,1.252620775632212,-0.7341966571985876,1.2082155326392743,-1.0412266261848098,-0.8680033821695149,8
-2.1697114217689597,-0.4807255838502142,-0.5134254738332774,1.112131348299633,-0.4518770219785934,-0.5830440909688009,0.041655945466303225,-1.5758738175068996,-2.753395317856645,-0.7696384425082152,0.7431214648367516,-1.217010726711816,0.10400927669475628,0.6484553803140687,0.4441102147991145,-0.43671933197087487,-0.263173682235074,1.1867835844923098,-0.28487064083123775,-1.5041370225646196,-0.6211838648324117,-0.13091437519475985,0.27130095177677793,-0.5227130673850171,0.5557958100438966,1.0474128082309506,0.9502060335185337,0.3805860733168279,-0.08931694820420466,8
-0.7559745567837701,0.03164099016951098,-0.6375907445260381,0.3582631922032838,-1.0093304584366696,-1.303216065214271,-0.5677753809777535,-0.9846261110571519,-2.4552085018448144,0.2797903505872921,1.4198014066496598,-1.9173295951546059,0.44811371523291177,1.1830337153438728,1.0994293430361242,-0.48770357885888144,-0.13798886369863048,1.1140203572311862,-0.42751927907498954,0.03355470834242081,-1.1727023378084125,-0.1380202260786885,1.0531604509265136,0.2813879759266928,-1.1655284376177297,0.9479235482422255,-0.2568251530004298,0.5849714277639689,0.6386030790272361,8
-1.0016352463096638,-1.6478326484838655,-0.5413479344792999,-0.4302881731765452,0.4138009851030486,1.3485992809362841,0.5436167550264493,-1.2695354767105334,0.9421497258284561,-2.452117545667929,1.4955436857787916,0.4308398048998258,-0.36424926059533885,-0.011658927257019058,-1.516003208596198,-0.03576225153316118,0.07404410622202187,0.19461618745881512,-0.9246613786658291,0.3673102472743019,0.030617665420312187,-0.2851575812768446,-0.9579821504375621,-0.06120067326640799,0.27364366271161084,-0.48679061929850226,-0.05954398957423628,0.138520944709865,-0.40959557587889744,8
-0.040636572501391785,-2.0273420898604018,0.4154806386425164,-0.3657455281182114,0.7047042679966764,1.4305219111390282,1.7202734122248227,-1.0684781162275017,0.5600723697091836,-0.8489321096265409,0.7993171544387405,0.302877471614295,2.142894239361265,-1.1824109722481317,-1.4033342869675576,-1.267288001174346,0.45386006283196273,0.27298663004445384,-0.8374927155289499,-0.1352184977783034,-0.41219592818800366,0.3485492902749152,-1.0533073668064168,-0.22869300520403704,-0.302067654130429,0.18052639927599207,0.13071517822949688,-0.15999055042817636,0.7761487993113344,8
0.6768756177832104,-2.3461754795276493,0.22379514649141566,-0.2764605109456746,0.1055358954908506,0.6781081581894326,0.5880527524735967,-1.1384167409313353,-1.4693829817034072,-1.4903454117888761,1.424557145188267,0.9027756073996867,0.19194504091883893,-0.39061395741271077,-1.1912492561436236,-0.1101211126646322,0.08717837661319083,0.32448418071563456,-0.674591055286403,-0.11549220311173668,-0.41993363106408566,-0.44153154146383855,-0.806951839709294,-0.4340752715504793,-0.7543255800957905,-0.13209982079404597,-0.07146128521405873,-0.18671619724113828,0.44751602994467315,8
5.209966935101933,-2.8220229460077513,3.3618273701274757,-0.7665292693531851,0.7919010436225419,0.9082121737313142,0.84266876502311,-0.6372889780836952,-1.8813274734391792,0.2994700260699296,1.0033641520312186,0.35623059573202803,1.8167717575893734,-1.7184379906907747,0.036034813133393725,-0.7607478193448088,0.26857429661657356,-0.3824922018496983,0.07796268165861038,-0.44398955580878763,-0.6492809733490305,0.05159504577561294,-1.0616400997761823,0.7212674063945804,-0.6667896379982031,-0.37481276752303627,-0.4600138012165307,0.3915199150534558,-0.07316211737815638,8
4.702208196989908,-1.2809731297177827,1.2300422382657186,-0.43435419200565506,1.3631993581521389,-0.8841996865743202,1.6341943568791515,-0.11520605191179874,-2.1454868577907544,0.09404156099693599,0.6532160613947952,-0.48648080670958005,-1.4098361236532373,0.9138505515841177,0.9773624052062292,-0.3966012897969767,0.6898833034322743,1.1930238455255668,1.217551847345393,0.6232753314486164,1.7301342737082857,-1.0151883412020943,-0.5382865179269455,-0.5373762692233892,0.40551949464593956,-0.4791581325467735,0.6775085926825819,0.0196229371603997,-0.0942847660372786,8
1.731511734938924,-2.179555035855779,-0.5229465592364949,-0.2886947269304436,3.55216831312512,-1.843783119392771,1.933931251574728,1.540105514709971,-0.39627194025680895,-1.8387504900530465,-1.0253581058372931,1.8615943417180203,-1.1407556366357667,1.2806667186444924,0.5874622859040906,-1.737726196220436,-1.7650938696447849,-0.69496664252937,-0.32064146760752743,-0.2871101979271509,-0.3145440900671873,0.2443580160987726,-2.004375520165929,-0.8210008221404907,-0.7932335771992062,-1.3901589991851706,-0.13440562424016467,-0.5011849074309875,-0.11238990174065903,8
4.533220990670506,0.334391224942602,-0.3907811871638423,-0.3804820827083961,3.746331165433378,-1.6005210041277993,1.6432832777509816,1.1489896919739526,-1.15017354544061,-0.9330673668515947,-0.5586376923569011,0.7241280704774216,-2.1664598937798,1.1815093469685125,0.8895171616079369,-2.0096973432595244,-1.3778927877210612,-0.4052219025193992,-0.31515739041088875,-0.33903847914774127,-0.02998970994210378,-0.8322872995103884,-0.13746386705633162,-0.8158635209017738,-0.9087609104050243,-1.1359316887831472,0.3305611782244938,0.17867857767085524,0.4133478763413929,8
-0.8389458703947686,3.441959280506285,8.338573254643302,-2.4538103625639347,0.5061223051854601,0.620544447220017,4.348823795936626,-1.184929681147016,-1.3482666127714678,-0.4986762174842836,0.20186229763155095,-0.5095696775677282,-0.6062000106167302,1.5683027643635892,1.0987836047100383,-0.51907149604361,0.1975058233906624,0.33968940271206016,1.957949512834793,0.17348048087557824,-0.12013448111900782,0.6286926680124659,0.4598665796164792,-0.4162285699943599,-0.900706302878596,-0.545042595815309,-0.3661887662659741,-1.4851420345513804,-0.22758374453364424,8
-5.208074321771156,0.1490005305615027,-0.11386033363265433,0.15860666702577061,-0.39635646809413005,0.8658590069720784,0.34683475508215017,0.15776543249409636,0.09600753131489856,1.3898696101726413,-1.0750575262971114,0.196473701426778,-0.11645389971218807,0.6360563256809754,-0.6190183080519505,-0.8752657615913887,0.961958521908461,-0.08188576300809738,0.16568945349414788,-0.25653417756473584,-0.7325288561848311,-0.6661516134083407,-0.5661966242182861,0.17875571722170225,-0.2972432073106107,0.45545709598796524,1.0878040729268552,0.9461969834961487,-0.9979562475508216,8
-3.2264814865756652,-1.4702476764490453,0.28313337019839757,-0.0017752815723767364,-0.13847712903499967,1.1075864235846065,0.1559466686602674,0.19300402632332217,0.04631183522226331,1.0221794108226596,-0.5518336471588713,0.6501528244002414,0.20086830064373298,-0.3024063524994557,-0.4850909567963186,-0.4110732548633655,0.44929770027163196,-0.8374827953612328,0.03315064643888748,-0.07768998860276248,0.007650621179680474,-0.6423186955966685,-1.2434787182068572,0.6704746251079051,-0.46317912449977494,0.2258166508531622,0.7151794661070334,0.10401071604684686,-0.6714347020371788,8
-4.9142212662864795,-0.6722401711821293,-0.3706966436661828,0.21141314341344133,-0.4452824280205289,0.7971347475499356,0.22745530362264266,0.29560633608510245,0.4634578966203088,2.116370952110155,-1.7629869024441998,0.5139919379601391,2.205653564258087,-0.4118756526084729,-0.8459710503260741,-2.204174124394145,0.9935891704997364,-0.5376342550670284,0.24574377672368888,-0.10691466193881038,-1.1120001068929453,-0.02340409160767046,-1.090419772153132,0.15485321089887938,0.05677388583436238,0.328120241522578,0.8226879258823221,0.14601769451561597,0.04579076616363889,8
-5.460976143739123,-0.2803761869285953,-0.6043309538765231,0.19496891872939218,-0.31402743788400944,0.11528414529248583,0.15419256072886597,-0.2259892944227769,-0.6850045014105324,1.2422134012211625,0.21002255844069334,-0.5408251655917492,1.6027411475627116,-0.34358076098342344,-0.555736008783596,0.17460279469026518,1.6374238386993527,-0.8842117638680811,-1.0153152925400235,0.10356094661756496,0.4571685357890323,0.5852077555986841,0.2610262649850195,0.304379134493844,0.23907567196462673,-0.7397599024288599,-0.30244901388867645,0.46688628020852097,-0.7205538226740289,8
1.6395102411829297,2.8143890909468006,-1.043791432490822,-0.19730170691724574,-2.1011317184981357,-2.9670099059303934,-0.5294553683139828,-0.4241666413235662,-0.9318480821893195,-0.3693749071002924,1.1451904587951687,-1.596687715944973,0.7449396135532408,1.108008886173347,-0.6183216384829706,-0.7784819141431202,-0.037066284706314144,0.2060417707658338,-0.31177126065404637,0.3444910120587945,-0.37138702479472363,0.06447152676872336,-0.12262164564069476,-0.12640055377207776,-0.1207764927043548,0.11988035459963305,0.5833829021239002,0.8370736538901481,-0.08469804175601046,8
-4.439566526961318,-0.2088475295647123,0.6156706843316762,-0.24636242340720552,1.1084460883268097,-0.12318722669883281,1.773030020606803,-0.11234729595508947,-0.5043309876424293,1.4347252724208004,0.17123049046052266,-1.461308738458548,1.0521803900428093,-0.42302657230108875,-0.3046659641187506,0.8083903400502531,1.9102965699514842,0.1626883572275414,-0.9868711483448538,0.4454244945307233,0.43312577295193694,0.8561087194049724,-0.15136396647338216,-0.5585049709133924,-0.42718693263503726,0.5868860221184143,-0.12302366438372901,0.497656505377641,0.90277839234086,8
3.932921322205189,1.0600441559174,8.36029125552091,-1.7915072174860174,1.317540470102428,-0.8768124882189846,4.30315091418677,-0.1543049219149104,-2.7131222048572927,-0.7037167259034826,1.1297032306279675,-0.05326883664937521,-0.45043397330816726,2.3625759880562227,0.18313316051003584,0.2600445857689071,1.0216729529223547,-0.8776178935745109,-0.30665897451994806,-0.5650559463306547,-1.2390577006015742,0.4431036927749023,-0.5040689182528205,0.08031334055045838,-1.2758638830867088,-0.7881083080809312,-0.16888288240907154,-0.9459135045783593,-1.1337875702899958,8
3.8215696448753267,-3.5837575114845786,-2.154620328230193,0.32725245989536417,1.0558367329834792,1.646987581880374,0.35311585958017516,1.9988220678577373,-0.5499394563334077,0.7572002376403161,-1.0098873904786403,-1.2672089831662974,3.6754408818427584,-1.0387993292693982,-0.1796179089916008,-1.551750571920504,0.22501681782905944,0.22016315779834822,1.2566330741955982,-0.44359058066772133,-0.820003467983998,0.30001106606884786,0.255756196513705,-0.9915975563934231,-0.46194649165942236,0.36746736665053026,-1.3623770711394811,-0.42444064535769416,0.6401568661554176,8
1.3164912296445483,-3.172794634116505,1.5779437671383978,-0.41699936358122786,0.8655118079535629,1.5724416426080001,0.8590602410166788,-0.5196955213990231,-0.5045404826131283,0.6862336067845813,1.1192402646208797,-0.7613922092867891,1.4923972423696168,-1.6262091603689894,0.9787655721159486,-0.4508355366441195,0.10871257949200405,0.6812120402434703,-0.9511169364492205,2.3989404011816604,0.027921700835121504,0.4412347377749687,1.8518852385315474,0.07368583433821621,-1.06574706955151,-0.5327861600298414,-0.22628085327275763,-0.7415609399816889,-0.5536115331845405,8
-3.9263499596014735,-0.8400646865222071,-0.8734878490399455,0.8757385169095888,-0.1405163907102045,-0.35614060397098846,0.08530311426455553,-1.1110593892197738,-1.5110045189925305,-0.23130069185342392,0.6907895934642168,-0.8819834749618071,2.0778809477140667,-0.6079991373022997,0.34622531763990005,-0.42833246710587164,-1.2114341276751117,1.9413539778511277,-1.6350704843497272,-2.0478464781750016,-0.42695818542343766,0.5424792875674963,-1.1682706970279455,0.5741157937190955,0.37448159360441147,-0.8195924675630537,-1.2706992045588665,-0.6008392129928042,1.2187705993796576,8
-2.813655406567386,-0.47007511869675156,0.40559770619926505,0.3143585609627742,-0.30044901322446194,-0.3791848973779458,-0.1327825257138689,-0.7239399834040722,-2.413545470420619,-1.4120939824429728,1.5927503216182184,0.47394492216589723,1.1478016640679376,1.0574529882663535,0.24442444970515464,-0.7944279526546155,-0.09628800979487949,0.11620492159214664,-0.33051423273286673,-0.7199654679644375,0.3661490061499931,-0.6240823050831737,0.006201456173741472,0.26010775902301214,1.4226009889929139,0.892171443538624,-0.5810817277631061,-0.25635765101027425,0.6888100342230807,8
-4.639113757307721,-0.6969086742505863,-0.6223902196717841,0.5504027109734728,0.03516808741092999,-0.7581381667327963,1.3208192835301409,-0.6346067431951636,-1.487331457748554,0.8162057682602141,0.5547350578870994,-0.6376266897539876,2.9459543130717463,-0.3318318311826574,0.4686510284994288,-0.9459171010722965,-0.0551122535314803,0.9780279491732731,-1.6629935749600173,-0.7289191661521626,0.1304341923941396,-0.33130568169369606,-0.35349510683592944,-0.4680215330678975,0.2465719063174816,-0.6971381671977517,-0.7329976225158715,-0.2401460376969808,1.4825104481872586,8
-3.8806544199241464,-0.31297408036014396,0.5052001251522,-0.3000425152708004,-0.534430940046016,1.5571747561343223,-0.7474942827322906,-0.9245935549471204,-0.671153598783529,-0.34102163321869283,0.683211764617686,0.014662017194093825,-0.6206171018716049,-0.05298613693830309,-0.8830977959545246,-0.5831305002277005,0.3546000379244762,0.12943580890846842,-0.6722167745606304,1.1668281220016619,-0.788541062896921,-0.04754144494993439,-0.2841124948546439,-0.2906147356220995,-0.04433580441733476,-0.21172121732628846,-0.015130244792652755,0.7355685451380075,-0.6980539930366685,8
-2.263471381346907,-1.0868165238278111,-0.6542568656217224,-0.19778975674458202,0.8002072516567498,2.571868417726199,-1.018789246983796,-1.1008830466473338,1.4124910234896466,-1.7471331667863401,0.8220956887980052,-0.28719145669726304,-1.047166336768352,-0.03961455421253009,-1.3024763571963818,-0.6828057657635177,0.7392689303104165,-0.4911796623760711,-0.26593108909432556,0.24682241791325588,-0.40567804113481953,-0.018835331862136023,-0.14981696163720604,-0.22880687789033177,0.2309329450042338,0.5542022284032928,0.019704661123810224,0.24995434589639004,-0.2998221628350032,8
-3.1650087390364563,-1.0952153508285705,-0.8495061022084283,0.21512497671330394,0.3139243523724353,0.6833730601247794,-0.9971096553903064,-1.2422243113876306,-2.393423461886113,-0.5550726626288667,1.9237827952730489,-0.30077836359457316,-1.5635051611081332,-1.0269570072236187,-0.8495236792320284,1.0517194912629895,0.05148934306351146,0.4447570895790925,0.3773122760149935,-0.044202842160728,-0.20784848241089746,-0.3503587670953006,0.1527544119585107,-0.11353970240884116,-0.7882545834180414,-0.043317791704532094,0.07558575587663496,0.34231989680435626,-0.746220998820497,8
-8.420421675007892,4.163505082801213,0.20235446891840658,-0.0197351979577665,1.8093481915518257,-1.578154069046963,-2.029089724986342,1.838027197045993,-0.45304231536936984,-3.395767438989623,0.46776629658330376,2.540161035238306,0.3691441311542297,-0.534862945726206,1.8908131507293173,1.7761965073676738,-1.6775984855731854,0.5176033184695712,-2.369281908878419,-1.1706281922665387,-0.924263421941724,1.92008955484411,-0.5500021745442902,0.7487317184073546,-1.6136122520980878,-0.9198319513625902,-0.07847846751952482,0.6557953430804023,0.3061403788605304,8
-3.612652326150016,0.43141089880485617,0.42918526100910787,-0.4077250092923275,0.8740382977307274,1.515660993875767,-0.34693510231788366,-1.1431057285307382,2.0577836516545758,-1.1226799468920055,0.6948375604244215,-1.6209152956837005,0.6335595533362746,-0.29864542646101017,-1.2369936605639402,0.5632878925038304,0.42237014561219566,-0.8110679819405915,-0.4394975295376686,-1.413903622670723,0.17724577014360937,1.3456648584981674,0.3014621081563089,0.7839191965924829,0.3360633836199789,-0.08110790355232605,-0.42571588728745563,-0.2544388315548583,-0.4033891318345042,8
1.4651468486910497,-1.0964797307051883,0.685900562653818,0.37331531795611267,0.08761764851588051,-1.3837166824878484,-0.9273901405660543,-0.8070395061157787,-2.5723660357984826,-1.026516211617982,1.048256151542368,-0.5314678310134008,0.5270493314076894,-0.3613135229060496,-0.9666116112793066,0.1339646709360135,-0.11127052195006669,-0.2453941885746274,-0.09869690342315618,-1.3213070561723406,-0.13173295925762826,0.5753734356579003,0.32917831884106746,-0.3366298695616862,0.11887268991178856,-0.17355549394447062,0.884656941529218,0.09076993743650055,-0.2803714876673255,8
2.639851892476524,-3.4829108108200217,1.6201396944329765,-0.12397755363366575,0.7981129768297112,0.42814520340376827,0.1243371532432119,-0.4007704912875854,-0.8565296055741293,0.1479390078760592,0.18997341528816472,0.3415659849413294,1.417506417608096,-1.9706967907201285,-0.865941587908573,0.03212736557021351,-0.054588082683063914,0.5136926071346178,-0.6241642841970682,-0.2939155726183792,0.5103552599901222,-0.15004850089069685,-0.17674384961506429,0.28462692954149116,-0.2429581281461356,-0.8605608397873038,-0.1780421564782905,-0.02421561693735707,-0.16267155440192965,8
0.09585580882786653,-1.1732802725410958,1.9245535125925644,-0.377686803458628,-0.6439106480815211,0.3831985082652454,1.184139934639648,-0.6373716573969043,-0.42062153764736393,-0.31265717281487604,0.698809590759448,0.767527376182381,0.5045047394662941,-1.0531373589235313,-0.7717079679078779,1.1606009441664245,0.29340590241676734,-0.07821284789364052,0.013232115947115597,-0.725535461825685,0.431603321097497,-0.5214660027113646,-0.6524306548544669,-0.6437249376617644,-0.5401250396208683,0.12254701555590267,-0.24470500322909225,0.041804357451815446,-0.22992451201488212,8
3.7878741696337572,-3.8136801262554343,1.142873317950378,0.23419889618951464,0.036489305474458084,-0.3334121904101211,-0.7354869203055135,-0.1786697920022984,-1.4418850186886867,0.22727557659698666,0.11087194991912012,0.023668741932061612,0.6578431754744909,-2.124696380668144,-0.3138091861739891,-0.15543626990748774,-0.20915998282691534,0.5047985769438273,-1.0450845889871598,0.6694452589721802,0.2929982944698838,0.14437905925367292,0.11634886761856444,-0.25797794775156174,-0.19008561021763293,-1.0682132146660082,0.48888675489824207,1.1591911945207969,-0.1972894617518372,8
-4.966730587541901,2.0209856383875353,-1.5161801864172524,-0.20771106105246193,0.3228571579942011,0.5519272807591481,-0.753054435226189,-1.7841152976072938,0.7113316738818464,0.8124112661626386,0.11776403680082903,-0.5714905044022616,-0.8835012858468384,0.528965094080097,-1.3205016288098035,0.7107389190113158,-0.06362866270675273,-0.017358312329306617,0.647611706399042,-0.5148495117906163,0.1233846063068244,-1.0626695064849898,1.2738691863111438,-0.5897362522880872,-1.0482285523945178,0.8192575860492185,1.1231329181635117,1.2215832336381214,1.517738107304079,8
2.9950898029898867,-1.8040271667115446,-0.5215710262184472,-0.004627217269080158,1.3690880054175143,-0.14707426107414784,-0.48049817783900967,-0.9703041579622139,0.5570762877355426,0.19327130445400945,0.687658805148508,-0.6004504798699386,1.419845440952777,-1.8677223026251804,-0.7439714285755941,0.8614181179258529,-0.13538353495370856,0.04866853701072363,0.4389428061280718,0.1031636492020955,0.7143685677482791,-0.5219917008172776,0.6876363062766353,0.6258905575998781,-1.0795178452682515,0.1736438081118377,0.1076822700106781,0.20419652891688891,0.29033055130915797,8
-2.3478373381843216,-0.14164215610176795,-1.5505166695511583,0.09546600809080392,-0.22199531121513352,0.5508157813534116,-1.255158202411057,-1.7004022405986845,-0.603651977241385,0.7980379674628405,0.6047992536670903,-0.13299646639479454,-0.7873225535180607,0.3383069852154417,-1.1468621777630252,0.7449265189771387,0.5190986038564043,-0.21377314977729575,0.004456068657486434,0.3924886499418687,0.07785092439826274,-1.8896037958837975,1.839778803182187,-0.20786223922152527,-0.6077218353107238,-0.4025997923445219,0.8237995072396632,0.6310657277062017,0.8149517462615216,8
1.7092140097869726,-2.8935632834465554,-0.7693486445078471,-0.27223105285142346,0.7926782835048423,0.5294022645719416,-0.9821456056875947,-1.2992220945141346,-0.2768730947281904,-0.9959172125311212,0.9544765656809849,0.12482290955578253,-0.2896633801073833,-0.4029168587619784,-1.1961336553992916,1.569984879164467,-0.18906394936771612,0.10655345193782809,0.29478832067470767,0.023551763127535336,-0.15456064974600542,-0.2136227636340018,0.4131963819871949,0.4286893613315735,-1.2713654784170847,-0.40013666223583405,-0.24606984558575115,-0.5544968086129828,-0.2543136066517317,8
-1.2953164058437099,4.496604317937032,-2.201682980174502,0.16559651200352524,-1.0278628408023898,-0.1390480802368296,1.1216723578852317,0.45450519589767285,2.265385625279919,1.5023042672710414,-1.1779366640287312,0.06774985940688483,1.1454480261273121,-0.881549098478549,-0.6070843515664419,-0.5183151453530965,0.5637051112097698,-1.0709047959036733,-0.13637329361795453,-0.6176694496611783,-0.1816576674475966,-1.0228506218186078,-0.5020366362623939,-0.5388761121059276,-0.29767468271401587,0.17454169824082577,-0.34042340990369657,0.3259312275874084,-0.5590833145648019,8
-2.7167031842518417,-1.4192296326113578,-0.7825403739494347,-0.15165801620324845,0.3609642382968453,0.6092279637101087,0.13068756240426982,-0.488130283774641,0.3735104330570747,0.23088422904720662,-0.09443340905582419,0.32594038616446447,0.4695596326209475,-1.5435975037342018,-1.0228517386115812,0.5859206029301792,0.09378037378909726,-0.013497906155146216,-0.3703984660517787,-0.1739535565479437,0.6001439558201437,0.05467007736165325,0.49920503841768543,-0.1470121919945747,-0.9791435020041729,-0.4453198263726602,0.6563323445478774,-0.2227122398659375,1.3507394892100701,8
0.10121035913521187,-1.7184083223352884,1.4566106306914939,-0.5128123771216949,-0.1180405288419822,1.0603143736708218,0.13794272583838155,-0.7375354487249451,0.36532314926600773,-0.5098520076445229,0.14345569781065534,0.05139773306292077,0.2921840789247653,-0.1926620408580368,-1.127538840226743,0.49383873296474723,0.0967868835485128,0.6610969901088793,-0.37758961618299747,0.2278816255409479,-0.5114759505220795,0.5355359637044875,0.37979293286778526,1.268622934670992,-0.9174668985895408,-0.7623349945585441,-0.5519343006812368,-0.5628625204777924,-0.46337808809419795,8
-4.411137970837846,-0.8013661661393893,-0.5743646516175407,0.20226686706104263,-0.5916414500952915,1.2890896631795297,1.4398835414813709,-0.7999464079593405,0.7430428275988552,-0.20374175310300474,0.7942151998469442,0.7138445996622421,-0.13176340507556564,-0.36266364526851347,0.06121706254071407,0.822253710957523,-0.126468340726344,0.10350912310907537,-0.10498551761908712,-0.6278599018854545,1.165911193714351,-0.6417397731208933,0.44452220564216416,-0.7294523502461563,0.21834016217103858,0.240577008893067,-0.3114398157417001,-0.36237182083836356,-0.3553789788252062,8
-3.5295047587742903,-0.6760518111340592,-0.44402063181436086,0.3037289309203768,-1.3125376599610767,0.6708583139267724,0.5549355712526688,-0.959601997252085,-0.8007687862174435,-0.1028412386255899,0.5679814759026545,0.5454964223628654,-0.398864772021723,0.5907474784493765,-0.2241122157431427,-0.10516046671065764,-0.12904049523047167,0.7443617239164431,0.32821151746726,-0.635531271841666,0.1801919485724612,-0.5748421347403917,0.8688796460427073,-0.9216784751785049,-0.13878876661735023,-0.11861924764413542,0.017004980961707026,-0.770674174072216,0.04102242189232242,8
-0.09147688835280296,-1.1222849461755902,-1.5962145161677002,-0.0417520332582942,-0.889207587740568,0.07485308158558741,0.6664847418428639,-1.0797371999990957,0.10020140440883081,-1.4664953459735672,1.469498777737284,0.5216710988154548,-0.674819769068183,0.20313134253664858,0.020036139210810423,0.8483157231951288,-0.08181071140485154,-0.025498266785785716,1.4148595908457877,-1.2217259721808167,1.1362196486491867,-0.5729402264924892,0.12057107588201525,-0.8173425218397422,-0.01567706759470948,0.3135918415257508,0.08455380143570279,-0.6774852279962905,-0.025565998420789403,8
1.729834589685745,-1.8313518091249739,-0.7211807584212017,-0.6772227827570286,-0.07014787270765871,0.2253505007843003,-0.6823751984683095,-0.5706648727350296,1.081871476043111,-1.8036600014248458,1.4470588672816784,-0.9106195624305012,-0.31771766851162503,0.608219201091394,0.056042701091308315,0.1628752614410836,0.6666605773996614,-1.204489063669667,-0.7710933103703923,-0.7100919685780872,-1.3610677482107738,0.7510194048095381,-1.1959237326973422,0.7213902249564503,0.6253445845754846,0.17192648190877816,0.331423906919113,-0.2274402154618089,0.6934661356282872,8
5.829999192185386,-3.4337251163967997,-0.3406900625009939,-0.8047454273689321,0.19723205053179568,-0.1753342305554934,-0.7399550595871992,-0.5055515841088332,1.2436947946192694,-1.1154206348590332,1.054889161946056,-1.8562163395512365,-0.10266428917856808,0.43179546550086967,0.21179511406577212,0.3800965834165026,0.5975005947291481,-0.8794051306723322,-0.9821489194339527,-0.43751909428980745,-0.6768166899870641,0.5811835998100994,-1.0179964683483527,0.8495381171868306,-0.6534371794882101,0.08976143842872204,0.012996564725706608,0.6998337830591532,-0.004899948859709221,8
0.8890189452602228,-0.45853057224402144,-2.3473152970653692,-0.44564020563535867,-1.188763704602016,-0.37241699320710797,-0.9182260153186333,-0.3509937634316158,0.9493378903620145,-0.5192059490887431,0.8111347656210655,-1.2834606691387382,-1.0700825412339185,1.0376908752177338,0.4507593145047696,0.8637170796625011,1.0707945675651938,-1.1773795121195165,-1.2308503153834234,0.1305145682031176,-1.0042818448875186,-0.4217832947071656,-1.1853362233033926,-0.2620423776258892,0.15883568582274313,-0.3966704657323498,1.0301998004118849,0.37195102960904697,-0.913693584253703,8
1.4478326619080828,1.2790969479853578,-2.2898744835160967,-0.4418500781365612,-1.9112814805923939,0.2654076624431352,0.15856642423470782,-0.8317340607944879,1.121750364352268,-0.3131301734483096,1.7005923011081103,-1.274739384001821,-1.9359209419801586,0.7336465704507481,1.2856777258314365,-0.20276112521921658,0.6236976022542057,-0.6362637494161142,0.564671715335924,0.6060735223950493,-1.7194912130041455,0.26974872580718634,0.8163771913002106,-0.9466319617806825,0.04090039696149169,-0.36668603270139166,-1.2777587550402985,0.027576462481890943,-0.31652980539039044,8
-5.445549733188502,1.19007943517035,-1.2749860077130468,0.4176552154224035,1.1462787197123583,0.9346754392088787,1.1233661110980833,-0.7180028869231281,0.4695320329697645,0.8540605791578971,0.7765555221855154,-0.8046110154486621,-0.04151071563795694,-0.9665447207439739,0.4672533508262696,-0.15945193973674276,0.1786797929601642,0.1660957730248664,0.5871263361299466,-0.3683111707328262,0.22723929754140162,0.2182127942428369,1.3487793356892963,-0.16990274833437327,-0.23953304012174056,-0.46684233175710466,-0.877946174006088,0.11044264389338249,-0.5044639484791273,8
-4.346563911671376,2.0139995230174472,-0.8896674271098358,0.20215777702284604,2.2834983371452577,-0.19785907159818722,2.722640049926059,0.015478197349482284,0.3968414485362281,1.101521806264664,0.43766601118441706,-1.024230755960833,-0.5014119830424304,-0.30399707941351883,0.8977923960057799,-0.12764971990516427,0.8518056610862984,0.208209727349607,1.0456357620806798,0.17935144953299473,-0.19357045413162283,-0.11287825466580045,-0.04913413809437705,-0.5556967868486299,0.32834161626057023,-1.0986283673953383,-1.0045725890984398,-0.5996996327520399,0.0318949037010432,8
1.3233321627760968,-3.170492623427849,-1.8677955749977533,0.6842992289189996,0.41316994139927254,-1.1314127396594145,1.2378620159210951,-0.33229800828296957,-0.11877409829279441,0.44817555425950356,0.21251594004139746,-0.9374594005452511,-1.168487163864627,0.48515831537858617,0.40121655661883604,0.48252439943357295,0.05954212809645544,1.3495367056987468,0.7789687819503516,-0.704269220220862,-1.060065511201453,-0.5504901899314296,-0.18374344939367823,0.2216827230377957,0.7304677917753666,0.1587940304513544,-0.15155111493329163,0.06282638758823696,-0.4072602179900688,8
1.428545103332571,-3.0849913061608225,-0.5221700110444919,-0.04007596355773581,1.0684304652661971,-0.2551854059654038,1.6427813730228418,-0.36530751473179657,0.25365571646848367,-0.1482747489922863,-0.13941489180932976,-0.8949166548604017,-1.5407364222882651,1.482280612495321,0.27928132984053905,-0.03241631464796565,0.6245133464469612,1.6185697984849874,0.6963859952584581,0.08677943611517012,-0.6406766484278822,0.06559952168970305,-0.1305918391026431,0.23587663623042932,0.39136598707476783,0.032630910052590896,-0.011138925653227836,-0.3073451308276734,0.4330980357452102,8
1.5003410397044796,-2.1143800420533,-0.21074195148476718,-0.16666688988730585,0.27644539773450755,-1.0999618154134658,2.1371174995377027,0.26098959356300677,-0.19106783671802444,0.6335210104406991,-0.2204658580528104,-0.2177991126524917,-0.7341502070249294,1.6388797408894338,0.5441515114059052,-0.39340369263820524,0.6632653092371372,-0.06899643341001965,1.6408497240714095,0.0855548923316941,0.04466838982513619,-0.6897760927158691,-1.2834630918725283,0.6881964959930762,-0.05656476690928854,-0.852023514418703,-0.3056113941515777,-1.629472565401739,0.5637047989281515,8
4.163998790880106,2.092668657619649,-2.6040247138246158,-0.5227842108841583,-0.7513607474869635,-1.142699290602487,0.8162484961424361,-0.6254207610599227,0.08712455648554399,-0.7492511330346104,1.3210745833878228,-0.3688320226973704,-0.4767792903583437,-0.6037046404111397,-0.17856601431249103,0.14108720770850494,1.284883328741152,-0.5127880334393928,0.8334011879255665,-0.08239275135532363,0.8839525468836715,0.0015299082169427918,-0.27770246093708817,-1.5631365330786227,-0.30220794197633066,-0.8678156450561398,0.712173345572701,1.690850190284499,-0.4905824236537433,8
7.128546684739242,8.757678559333256,-6.102240365075436,0.16279827474815478,2.739928840207367,0.22744565409834805,2.7514329972358493,-0.113558718275158,-1.6957948126254767,-2.0680692402738656,0.6766970537398554,1.8005120710790297,-0.8572560029012775,-0.36150537150042183,-1.351465476616438,-0.8251923510791742,0.012537134993155532,0.8805566504509272,-1.5274371705334635,-1.7325036145825197,0.34646453547873635,-0.5210632670070862,-0.6078051056406711,0.5835029715917807,-0.8128241875035233,0.2740590634031519,-1.1595678056015364,0.38136971256132557,-0.57879701885016,8
9.027891344768529,6.121142738887381,-2.279106131789995,-0.17317257059424615,-0.7300949021149341,0.6758532848431994,-2.1544877231594266,-0.3829673480243461,-1.5315857182178523,0.6156683935603111,-0.6998052004914452,-0.613378512789651,0.3879482757365811,-0.8174810981839228,-0.35089564747630936,-2.474325926573253,-0.4849047104778788,0.8604965603402037,-0.7651896234439308,-0.40959493185997425,-0.026523214761270928,-0.7913055197423923,-0.25314417619734303,0.31082610660939003,-0.9837576423729116,-0.9703429022287126,0.6352984378828407,-0.5635406786172259,0.43421506584256775,8
7.229419189746617,4.024009909007595,-4.496309771231155,0.44427172302376094,2.666452196964103,-0.6895545801704754,-1.8288728884807932,0.4338961811547234,-0.6428369927272096,-0.034242961680132945,-1.155665696916401,-1.081887954561739,-1.6366412373340844,0.38848202907934093,-1.342307339654634,-2.7284047725438327,-0.28392301910907025,0.2857058250808897,-0.2047218050716108,-0.27465967103710576,0.02322317101476994,-1.6735767491366071,-0.2063445860975303,-0.13428798939456654,-0.4705266224104316,-1.0107449010592038,0.7196629267730441,-0.8005358807354854,0.015739418271910926,8
1.3803174320488654,-3.184921836443559,-0.250763594964135,-0.58269539001833,0.3982997492873805,1.0540542750131232,1.1005996887267562,-1.3989833714493671,1.3852348816663889,-2.087527279503886,0.8923970227200758,0.23156197213052884,0.12959225945961858,-0.25809788383971605,-1.3264944247599322,0.6265845912763498,0.15332869144111824,0.17126871529329227,0.2555176723464397,-1.7532996460236872,0.47326345449145585,-0.053548187232187995,-1.333918995925135,0.1906396977231445,-1.0235678750613617,0.280451184085822,0.631359463320243,-0.028913418072788282,1.23172989747674,8
1.7249253082563354,-2.85568735960324,1.72368713065115,-0.2658076075153362,1.0563483676608938,0.7292079685024343,1.1059154772589144,-0.7091691719102986,-0.5339076000309516,0.44164571835727723,-0.049389201110786915,-0.3982125399397392,2.014305958881029,-0.5117927132533989,-1.1711073311945965,-0.7124151201980433,0.9908409434582863,0.7641340659935972,0.4584426862596878,0.35838825947110914,-1.0925944442835196,0.24270575897402105,0.5280533276809399,0.9710970185364002,-1.1273916457208966,1.0780439597916733,0.11025102340560894,0.12019840941232997,-0.9462819789178395,8
0.5952455493162966,-2.992704807800401,-0.30531960215181597,-0.09988218167967768,0.8780262571679102,1.3623803046993377,0.33801780380667773,-0.5516787524559632,1.4651937966760245,0.3160546574099711,-0.1807594884958102,-0.6831307695606383,1.764667680936686,-0.907886389166234,-1.282988388102287,-0.7804540706846724,1.0992184356881216,-0.4781678675593159,0.1982072369714565,0.08511500747702774,-0.40910917112176176,-0.5099530608556821,0.3790172704115117,0.5614341000270815,-1.0955477237539613,0.4989806094993832,0.09707244467811327,-0.4358839112157198,0.6198078710601884,8
-2.0515835949132355,-1.526653115720568,0.8123744942233697,-0.3739084416239706,-0.8489459767004676,0.958038650724331,1.0406245522355289,-0.5352511540952086,-0.38544910452421555,-0.09578892759863276,-0.24321259555243663,0.8747329578965148,1.078149994998018,0.020995440174297057,-0.8111614679921136,-0.5220818623136197,0.7007066654282181,0.4549585096485426,-0.3083176155644843,-0.17547235666592056,-0.6674418910683495,0.5247752339412527,-1.1287616814523918,0.3613627647017388,-0.7616156631375838,0.08231064538874673,0.22080361647017235,0.12807055710598617,0.3013343833706199,8
2.035769551218517,2.914154927677083,-4.494952245969743,0.062380957423578375,-1.5984675951096319,-0.8461234396842543,-1.7237952750423404,-0.6289620793749762,-0.9026553894739171,-0.43228438359872545,1.5403889234475876,-0.6420619723032418,-0.8111130679220842,-0.9203062600328809,-0.6831375730074363,-0.37169034710548926,-0.231802882482987,-0.7360342411977382,0.7117167106887435,0.5988968140510239,-0.07992517445135519,-0.4257717259281388,-0.8125108106239987,-0.7674371047203755,-0.7984027748105151,-0.33921124355387633,0.11893340890421969,-0.002427165749281956,0.10666073741596918,8
7.23750741277101,4.974784539847237,-3.6526985568361146,-0.4612400789929079,-0.8095561570326205,1.0234642209583633,-0.8163858464224399,-0.9188424861046526,-1.0800479923587913,-0.20987374113916626,1.5818809605621298,-0.6694185241044561,-1.5928408247020742,-1.1042834317316133,-0.20730467087246374,0.05102829953411829,0.6355189403965986,0.041939916793427505,-0.2573748042497852,0.13897260025236685,0.16706284898480755,-0.5680412731649324,-0.3679581289711611,-0.3337924211844049,-0.7580424021373883,0.47687487007123647,-0.3154711359471802,-0.029696407981602963,-0.5302582856071946,8
4.313793747933972,4.8229591181079465,-3.1688041161397424,-0.37341861383100267,-1.5493539221979022,0.1174142708469771,-0.7210607408413896,-0.5265841427535505,0.02011160055161109,-0.5905596405351061,1.4120572568519234,-0.45385461075698025,-0.42678948813181766,-1.0130311844138047,-0.30525186429756757,-0.5670360576304215,-0.04112710631717313,-0.2915289545085774,-0.18546819051161467,0.31147062249675683,0.31917519383943516,-0.546189009801731,-1.0817137080087098,-0.6094529867235102,-0.9753106135299606,0.2856652264822237,-0.31454528008991695,0.14749306785598373,0.5901108406789902,8
-1.08541106916955,-0.7093119665946401,-0.4897754461088421,2.6578241285635515,0.15748115128317752,-0.04725554965441377,-2.870825342517197,-0.46557802984756214,-2.3365404588162577,0.6385945656269654,-0.895340153692673,-0.8125520229716449,0.429978486673925,-0.08624747213182386,-0.913585019161441,0.3785045670164347,-0.2739183385673618,-0.9032788417098175,-0.8090611117160308,0.5082363374942415,-0.3513166044937342,-0.8665533064830389,-1.1286321439881553,-0.431215297373388,-0.31809115816073846,1.4977192377153277,0.670951681543729,-1.1201466954551933,-1.2516695607309418,8
-1.5982587933673833,0.8442744514216561,-0.30926494891259093,0.029819396090718046,-0.7804219454101013,-0.9420528545507219,-2.626012999831448,0.22539770677626203,-0.10204615705130855,0.5347246360315648,0.24825689792128658,-2.000889112181594,-0.075283410666115,-0.06649585854181349,-0.06979884413761542,0.4951961470763699,-0.10198656958277444,-0.5335537403173282,-0.7218477012103223,0.762142842097058,-0.5140648772779268,-0.26302273172054286,-0.5066017157723262,-0.9090425144740777,-0.9806435243303493,0.5085215874223411,0.3009160111449778,-0.6806062084849881,-0.6671986065675424,8
-5.5020178749792015,2.347672400711244,-1.2760678117174868,-0.6810499541212437,3.0050578517583055,0.1856417260908645,2.332079843579967,-0.6862757894137356,2.1111547188966227,1.158168255218731,0.7070484731630851,-0.30214404997332545,0.29112329856080205,0.34878153537095846,-0.5253349264424627,1.059958118863926,0.3010500044349493,-0.7125169211682666,0.19471444071153174,1.7204218143664756,0.4589434680060936,-1.3085702375426553,-1.0940909953153088,1.2831593156744026,-0.17612378709578574,0.6503262841801786,0.10293075743892344,1.1358106510241537,1.2916809441527752,8
-6.642424698974672,3.857835141709552,-2.071255816457952,-0.5813145421119795,3.8072132045740057,-0.9028448616796364,3.6275752750859085,0.6859399563955542,0.9474800690075937,0.8916769821167381,0.7751128589963922,0.7602619945717797,0.5928280742806223,0.8932659424360858,-0.9507704620049247,1.1145260657641,-0.9634151699831554,-1.4692943980768574,-0.004226702061603707,2.0353455148208046,-0.6503374198359892,-1.1066003572758836,-0.8511418594423619,0.5271108965971453,-1.2172917980520086,0.33033478535733535,-0.05153719884061718,0.5685116861209182,0.22820177167391045,8
-2.835167915097792,-0.36583004367774197,0.47907194069604914,-0.909426428876797,0.9763982808464341,1.6129602754291115,0.9434861656831081,-0.4994455146589166,1.2864040119399458,0.9765505502384098,0.6324327449771789,0.16702639634121574,1.1604214734183094,-1.166886252990203,-0.48358650771789674,0.05716693034349621,0.09301405949946856,-1.1089550952529073,-1.0165667556958642,1.8215512252595245,0.17476141396609182,-1.2153629356894626,-0.24530343084532397,1.6291676071262018,-0.1648355423178556,0.1018259277928854,0.5507347284092368,0.4932127543291938,0.3916639843414565,8
3.4205706859995737,-3.4757005294621752,0.41328476669837644,-0.39143990838126513,-0.8776775136394228,0.004662652173962213,-0.14456483399160808,0.28973767269471,-0.17808306131443172,0.03740795237929351,0.9201907456576411,0.17512821271755497,-0.8378500311133875,0.31139352283471483,1.6139152254461742,-0.13896032953360327,-0.6190803409375908,-0.8508876858221661,0.46917781861837865,0.47680610453433614,0.1726025260312331,-0.48264916384127293,-1.1108076355261383,0.3958204564998221,-0.8542869818860304,0.34209350134318844,-0.555941486528749,0.0947995169690667,-0.20882011652774085,8
5.533126312291207,-3.132383181012585,-0.6424826340253844,-0.22766986916057458,-0.4545149028656183,-0.38820212827063616,-0.6318109166873667,0.34596535895295816,-1.1003486867787946,0.2770810474821617,1.2869900254055302,0.4848339755570691,-0.45788776498295714,0.3632560471459662,2.0583432941739512,-0.10115649977419419,-0.5253474856689221,-1.132869554484263,0.7608308499151398,1.6714813323135873,-0.6012228012969195,-0.27403551399254655,-0.9378634922161367,0.699200502994105,-0.572418443538307,0.6492913339583903,-0.5090531079790657,-0.1843692904848022,-0.2811816697773361,8
6.770846928219679,-4.170079643741745,-0.9247297305846663,-0.24154050820248554,-0.6746606092941103,-0.3476653920478327,-0.329913839854672,0.5878391000366265,-0.2635519481222111,-0.25121762704457373,1.035528981215799,-0.3812638644732273,0.02431055326599659,0.22357481451658082,1.3615296887759856,-1.4926308865172748,-0.49885868847293957,-0.4987117999532658,0.12983513120698767,1.429431526199042,-0.8165563691390189,0.047641647010367584,-0.378480781980262,0.09868834179828016,-0.5223150741369943,-0.014068046336940771,-0.28461351762161563,-0.12115515560912984,0.47244738502869205,8
-6.452465799746626,2.5595163326734114,-0.21769387938759371,0.23328855925375225,1.8403248306789217,0.5504919540049675,0.6905337737186126,-0.09638626388614228,0.7945296799897309,1.079323888651844,-1.376432387247296,-1.222729767854398,-0.8217150168694445,1.0025593690157808,0.2618171545761782,-1.4311971902339464,-0.7579134636758953,1.3660703464654944,1.1305256547041587,-0.8458672511060922,-1.2991236016119083,0.49033540321085617,0.49959918484311916,-0.04638831341292753,-0.5153239322998326,0.541355379483787,0.3764191323127412,-0.6011803053713357,-0.5528636151027293,8
-2.9793677040571467,1.8740550748968126,-2.4881908180211774,-0.0649026817592073,3.0218977696190947,0.003977599884097641,0.4728662883772693,0.013079813164653984,0.5444549512331616,0.23836096943883617,-0.07953050849536,-1.2807596265729955,-0.7905121256123698,1.347823267787819,0.049465665985668074,-0.03604554725155757,-1.261534310749056,0.37126449309343806,1.838144492004291,-0.27094299775935765,-0.3573336165779125,-0.7495931746677642,0.7166008686595994,0.8000088284730839,-1.3624415347170677,0.33859532815971116,0.19111343466851935,-0.902017902832404,0.43889158429728614,8
-3.387180354329367,0.32791738893744904,-0.9858450550994626,0.5067449850754514,0.32541403860850815,-0.8777650169532306,-0.14969736421385002,0.06976048309706125,-2.0910981487348157,1.576137194490544,-0.3901974561438891,-0.7793098348998296,-2.01046152042865,1.0463015651666432,1.0351672047046447,-0.42559536800955994,-0.1806878977081658,1.755173520699133,0.9854340847433435,-0.035831009899557474,-0.9526516840339637,-0.7792609722029938,-0.029289666512477587,0.6897086795314298,0.08018312987703582,-0.193351508671537,0.3091409599123965,-0.11187878242316604,-0.6012083257223495,8
-3.822352907959146,0.3527478278278417,-1.4142126972902378,1.1878293695236553,1.5055838726678055,0.6081035944659217,-1.6471467496649872,0.877591294220804,1.3007340463767683,-0.26596498760788817,-0.36091836919092196,0.7518048770221807,1.8290355841992694,-0.5285928623682696,2.4234001126658233,-1.1299420502324593,1.9237601886304705,0.3326156304897474,0.6172303600400177,-0.28612707123118347,-0.33436238223567216,-1.3099894781292,0.8264981518032084,-0.08838130135242134,0.43287417506888876,-0.6754147033678819,-0.16133584481453697,-0.5642099216630183,0.5171323002386136,8
4.058436076325982,-2.9964334716960024,-1.440365039784182,-0.28484507641962226,2.544489427835671,-0.10818217254104101,0.46342101562048543,-0.45302391210089715,0.3119718012070336,-1.1568513607991926,1.112124388268396,-1.9419156237140203,-0.909692175874787,1.0926823346562882,0.2558300426022887,-1.2792276611981803,0.638920025062891,1.9887883549196415,0.3415080459615962,2.155761282555095,-1.3877226375321627,0.023862671600164847,0.5787340057956039,0.0480562899917524,0.3856376112827347,0.2606636909541038,-0.2990970346299421,-0.5155608904766936,0.9316180260589951,8
3.850876114906748,-2.5884462281632694,-0.605070470670405,0.3601160588848168,1.264603877444906,-0.1365328428207652,-1.8610824105106023,0.42798326535490766,2.34253199235653,-3.088530721348783,0.9614380774285004,0.3635470420969721,0.6506516215565283,0.8020286046213534,2.6189442995989225,0.18596437029274118,1.6841781825423434,0.7107103343797334,0.9837229487866416,-0.058919731035975066,-0.35364712317858543,-1.3582361286363804,0.29920224623159464,-0.07129885577343573,-0.6332245592336158,-0.2392905849278093,0.024524248990707813,-0.3941349818050857,0.2535923647885539,8
-1.3514203889290706,-1.2638011266465166,-1.7980594868264623,-0.07262750945988877,0.31877643476763146,0.8321427359758296,-0.4293910467750196,0.009045781873130345,2.171238222225824,-1.7363732211283616,0.9487231983323857,0.4187879484570606,-0.5304380193486596,0.15239982367875035,1.163458341342228,-0.2754502273793681,-0.03746125037598184,-0.40167753345154483,-0.1261494736822515,0.3807618282279995,-0.129173386256779,-0.7058063077783666,-0.7244328014873639,-0.5070498241686955,0.9925962177824144,-0.050917853931777085,-0.2315102696367883,-0.31665328579009644,0.5257970085914673,8
-6.121159066765473,-0.0027037291094783467,-0.21436918765641594,0.13394984492706577,-0.2914660626914814,1.5232290714668881,0.5785689055413347,-0.32196554435971764,1.1247922278104812,1.0799610246204647,-0.315636715094206,-0.23630806101745383,0.5947436369881576,-0.8639622188606474,0.7879931321983855,-0.5032103347678086,-0.07742375562711169,0.5336633762994245,-0.4356973850391305,-0.03645445525462696,0.3828701385871495,-0.15326918945782228,0.08278388553066544,-1.2186471686963125,-0.4076078393867337,-0.23138599102781346,0.5073617399978592,-0.46882540007976564,0.21931775499959294,8
-3.6619339334508854,1.4176410241748951,-0.42801221750978197,0.6064544115527696,-0.09433420727067782,1.1768916659611774,0.21239160418551933,-0.014177625183130196,-0.8053881793042288,-1.1231343712461799,0.2950622335430897,-0.8125117611460042,-1.1575945617821213,-0.12116399634545039,0.33391937108973657,0.17603256960526759,-1.57692585717238,0.5850008967921451,0.21193293697811283,-0.7172096353522459,-1.208889002279553,-0.09555148885070805,1.030203244591535,-1.0156221279164386,-0.8557075103780416,-0.8337725250533564,0.359062444975625,-0.8064581760697116,-0.8409429647211413,8
3.6231265470626712,1.6609080488224266,5.041572829981553,25.65051516438399,-2.9514863750276796,3.0428849319891818,2.8620032960352235,-1.8900157637492052,-2.924421676661333,1.361345307561998,-1.0394351807314153,-1.758762571380162,-2.6691550740067114,-0.5285785118595028,0.27120412345535483,0.26688178781449706,-2.1827751320917694,-2.8774188426920486,-1.6171991148597702,1.050242362588079,-1.182260243720028,-2.226692516365429,-0.27617929587929924,0.9513266826134199,1.150840013333038,-0.05254182460118079,-0.6728983916523001,-0.7595882643735753,0.25482869964383764,8
-3.1678534277179318,-1.9610339105054784,-1.2663045839503693,0.1066917647813291,1.400446510330902,1.6700780060375562,-0.8964591646507355,-0.7243171283226916,0.8840024594591649,-0.6805825629510956,-0.04384356060756642,-0.9949432435637082,-2.4865310199993416,0.48373488264656256,0.5046235277284317,0.0036715892284342007,0.15973397688511268,1.1420325854449034,0.19284401735126538,-0.8146536609659432,0.2896797298518913,0.27284478567914255,1.1118145879904358,-0.6629187975588675,-0.6478285784814453,0.4429987759842312,-0.1369096345998832,0.9716042182743914,0.3476842202035005,8
-6.636066882978518,0.8478403135560794,-0.5073480221194459,-0.03762352821145704,-2.210341107759038,0.21090122459248967,-0.05695532456896817,-0.9093893916853891,-1.5935071937857943,0.610637965735327,1.2269769474608914,0.9583819092444892,-0.3293515878088486,1.0061375321887305,-1.0913122115211655,0.22178702164420921,0.6851271952078982,-0.461329912813747,0.6542115457798797,0.399067495931684,0.9671748026069316,-1.154549129130787,0.03848372155466989,1.672681260752933,-0.9196375924052245,-1.1640990935127455,-0.06798565351520901,0.5515963084366389,0.6695457983443933,8
-3.7594808506281185,0.674796959923693,-0.3870108171979255,-0.3216424032065937,-1.437310218211463,0.0025150179722389938,-0.1344181330987611,-0.7983318332590168,-0.9416715059838391,-0.11936537747589503,0.9556394498861579,1.7419403239817657,0.744100931379709,1.0762176654714999,-0.8630191385584366,-0.18789165373657263,0.4817164913568762,-0.9583637282758416,1.1764203505660606,0.6974090828825616,0.7622267587918905,0.07454293112102835,-0.3475505913000186,1.2880114526970012,-0.2723016601689756,-0.2864974685052187,0.2636432019711207,0.9260433895147748,-0.0161334376255761,8
-1.7297281426129472,-0.990087653732367,0.06470853393334478,0.3235591785437727,-0.09620859920248004,-0.1075774767029734,-0.5346497203763226,-0.09498265318207971,-2.0351378004649545,-1.4029243030801835,1.2041473896690562,2.3795849552911297,0.7371269537547118,0.01822770211082652,-0.33599393521909876,-0.5486511466553777,1.0923552280927475,-0.18558449338807617,0.6535893154139308,0.37827382253677033,-0.8899187698406539,-0.1455304726749683,1.0009947857739945,0.6128005716406923,1.0265434336506798,0.6193311487086898,1.071791556143377,0.5025135425792072,-0.27496422645276103,8
-2.8307427254619477,-0.6429858462702112,-0.05536224316473825,0.05467579679035965,-0.04502278470243513,-0.255189670927593,1.2343108618666294,-0.3335073142633969,-1.7932580794537694,-0.9754519077273336,1.6877057668205089,1.8537275995349358,1.0832424937482528,-0.6518527872387252,-1.1290774647117698,-0.13538061300297322,0.5981740862791444,-1.0913750136069107,1.0549822548421979,0.42798747284783245,0.3079258749647576,0.30849346160954094,0.849219274980855,0.7681265483832633,-0.42132190600136543,0.42622601944583477,0.42427332376799404,-0.1405200709806499,-0.5061902892243574,8
-2.9611729052597875,0.1319021894797103,0.010908029217394869,0.3701981866547077,0.6354865769858282,1.6781266063666396,-3.7781576982974796,-0.28162549003294257,1.5936698889440803,-2.1107866966772173,0.23772087836452346,0.6526348095872161,0.6406209081434675,0.11817270197198847,0.3394655236527098,0.0495490782457665,1.6859600179553125,-0.11321950567643761,1.291611178276405,-0.4371973333118918,0.2190316272371634,-1.7214975602469027,1.2470255061387325,1.3028166468880762,-0.8284694800335515,1.6172518721755502,1.1777645689987695,0.38936110221446524,1.4140061331656535,8
0.9529690662163911,-2.6486893134762117,-0.03849643236808923,-0.5552533675956975,0.8144257038499817,1.9892675961997606,-1.630910762659863,-0.2892992800802768,-0.42890140636909946,-1.5345920769573222,1.2609750341453274,1.1793330010813834,-0.18876746165315444,-0.002300536858124333,-0.17795120652930219,0.12685214941222087,0.8061745531594391,-0.8370924955315536,0.19996725132802914,1.4004419299107278,-0.9155496667096404,0.1799535531090397,0.08558269932535381,0.7416592031436656,0.455851549494483,0.9957446836681075,0.5040440891310125,-0.17071634112477518,0.9165029934521287,8
1.9713800950285219,-2.394417005126601,3.1802395391306755,-0.6914202464841378,0.4775350468024334,2.143936279749844,-1.2621626427883532,-0.021145847486280032,-0.1728467888181732,-1.7934635696101544,0.5497767996854815,1.4337478113501119,0.2927599264395362,-0.4375972908933069,0.861581373799764,-0.1448636749092716,1.7051589017358766,-0.6273876125474229,0.42559706956956467,0.2603642402151171,-0.7398643061784819,-0.20414323900469414,-0.46668134779996456,0.6723016324353963,0.7472925737067921,0.9569589279507844,0.5134761856156639,-0.22736867094874721,0.6388558972294937,8
2.2279181350143356,-4.075333442146039,0.4110220965018321,0.07759800329125943,0.4504752706662971,1.5699043401977841,-1.193591210540204,-0.23559476085945422,1.1172109125752303,-0.9611460521064237,-0.95746630723257,0.27804278522626596,0.2037870649308538,0.8080898099423267,-1.19099553473112,-1.276376480455417,1.185637644505255,-0.11932683123351832,-0.2446263387250987,-0.04530997807627938,-0.7666883122290553,-0.35147248210325954,-0.3861320934065887,-0.06264713924623767,-0.5311368344202956,0.5961124966789143,0.07387787630974355,0.0621887912226661,-1.22154741484488,8
-11.094278627535443,3.2936592027078895,-0.9498999330240463,-0.10200494566858935,-0.799811058144547,1.506712214273664,1.508601169704405,0.5268730440484428,2.4124427073861914,1.6585522568880051,-0.21421585327387715,-0.12060880672172461,0.09071511266054062,-0.35882975418711577,1.015221197625746,0.19257280498469784,-0.6706077549517399,-0.10927888564767947,-0.2506679577127624,0.9072773831164522,1.0088220253626374,0.4131932654022333,-0.7358691356809822,0.15724959822165097,-0.13677645071897862,-0.1768043233000713,-0.663074136550981,0.12430038105020799,-0.1071260501512702,8
-5.5362235908864745,0.9523682835094293,-0.3093541156619214,-0.00952273198404191,1.9180217421820744,0.7266667063179019,2.5483531367423953,0.05446501900486282,1.1509477477549501,0.6413074507465358,-0.42667737911951925,0.15185545226182187,-0.1986293052182799,-0.5237070574265198,0.5326101513384114,-1.3175130966510673,-0.6943568275357161,-1.0474433178774842,0.25750906706851984,-1.1562642322331704,-0.9318575132717184,0.7942094821120452,1.223747090964664,-0.7695033186592659,-0.36318026015978494,0.43549525178232695,0.19947996115044633,0.3225147464245149,-0.8312645192960025,8
-4.519520886381724,-1.2428399939201464,-0.9518513429927563,0.1117837498489962,-1.080000071764939,2.2209939111346855,-0.2733787854454931,-0.9094410279977381,1.2847400380697411,-0.4047764161010821,-0.03724959688591415,0.3377259117653481,-0.8639017890227799,0.9516385377543345,-0.06204078381540991,-1.5886812464516622,-0.3651161139374932,0.1084085091037485,-0.873520174928806,0.01845893952662016,-0.6358123201851495,-0.03157843690479596,1.3222680805882225,-0.20950115365532282,0.4781280062706067,0.22129889800718436,0.42903692139399285,0.022500255095915758,-0.11675476994364252,8
-2.1511344526382614,-1.277002086512932,-0.5596659545496516,-0.004876135625025682,-0.012228297702670362,1.389802882429081,1.3224354983949516,-0.5650805214157162,2.416061863724667,0.6801627120417358,-0.5140666135247924,-0.7936876301930553,1.231816721531437,-0.49394954817976144,0.6480033972608892,-1.355168085749555,0.10297037158836496,0.5941849881880277,-0.677420627796249,0.1525382867804571,-0.6179013486400803,0.28463890916938495,0.3100220154572841,-0.3389620570377279,0.2523625417895696,-0.3852370151162282,0.6272591270879946,0.041398635978478725,-0.4422948165623736,8
-5.371112610194638,-0.3713187930925645,-0.8529786721097792,0.3182661386894943,0.031849428747142416,-0.005398607986321213,1.1699173185620775,0.08085495824225097,0.008309076514353765,1.7769714338162412,-0.8535868704763436,0.3337101978443163,0.8570036982055288,-1.1787189975710177,-0.52019192183891,0.19972440441946943,0.6951998096850147,0.5970015639866166,-0.1476560676240003,-0.33818522404284934,-0.4801919346273702,-0.23538375267862785,-0.4536942303883434,-0.10919001715682954,-0.03541174773298615,0.07774522105703552,1.4255989903066515,0.30967576640115385,0.6585099928035045,8
-4.474164462417911,-1.0571871141674332,-0.12839666296602872,-0.0005785304059069614,-0.9285994101398838,0.7430638523899523,-0.1913900179194368,0.2576441181646691,-0.218590236088045,1.3159768246224335,-0.6930936492417642,0.9424886298507038,-0.18417888059025125,-0.808259923043775,-0.21986545256138484,0.5375553079811075,0.23735869054222597,-0.048690850217518865,-1.1141457171518372,0.6429461290084149,-0.1858412123232606,-0.551643140581378,0.1901510840607247,-0.0696459753066555,-0.7517877825661634,0.0001540207967461759,1.0773794592250352,0.17788526550917147,0.3096686198725758,8
-5.058197906171232,0.8437893361367844,0.469881822438035,0.6906363256958976,-1.9206699417997253,1.143909558440059,0.2274333672215574,-0.9259414321718747,0.10827030903844734,0.056010162283555834,-0.32321674010551305,0.21517951649078532,-0.9788406203212734,0.017635721165680407,-0.5476974534452216,0.8026227815360717,0.14992788633717435,0.6338391418710785,-0.7556593443819632,-0.06298585097292361,-0.9416387643216255,-0.7966480791307862,0.0724892434644248,0.10820308192826791,-0.2929103814679803,-0.0759707476713347,1.687847169470108,-0.5492585197807267,0.056811349910475116,8
-4.2621000842365175,0.39858665840394364,0.13434047770306984,0.5302408190287887,0.414377295044853,-0.38540049715773256,1.408068391702926,-0.11607772673281436,-0.08971871284917209,1.4841984601706928,-0.5424451861655932,-0.5481270539416815,-0.5028005867387443,-0.9238612757016605,-0.0683698168252388,0.9458656118733058,0.3875323996071322,0.7072915615662299,0.018166297822720053,-0.4419657571172425,-0.9579453106964303,-0.9646360391556301,-0.4665792815013296,0.11167099272160408,0.20915940949737766,-0.20773953952303406,1.5353991232776143,0.5419313194633162,0.15807516031302404,8
-2.220780435796791,-1.9213514369808313,-0.023783533291446148,-0.278326494083697,0.48370326073076875,2.0206562574031133,-0.8370704394555963,-0.6316053711502093,0.6325006694889286,-1.2249156851656524,0.49070045426155035,0.28673390585655234,-1.0802241486336475,-0.14490447104787874,-0.999196509562503,-0.25394692649022405,0.5374165902721096,-0.6404495530576815,-0.6421274947654727,0.10909545914359167,0.3434940865432581,-0.39490817142330714,-0.8613610073028686,-0.2839449276489713,-0.14945269960288293,-0.29825302357443695,-0.29647993404968415,0.20196544167364375,0.3766055528186517,8
-1.886180993645752,-1.960460689951219,-0.4102170487974733,-0.4302731929402745,0.04023675131628335,1.2438396547315869,-1.7530750673601023,-0.40309902654220864,-1.0734861306631418,-0.515205103528966,0.10801948992558903,0.4654371521094659,-0.8904503098885653,-0.4812971732504795,-1.0997933046185604,-0.8702999796102447,0.07975881722897098,-0.5865351638421719,0.492421795656951,-0.10243115678896281,0.7261155970509935,0.4880509830968676,-1.5778810420040545,-0.5261961750815063,-0.5458689532691218,0.007894768123942266,0.27958311350933696,0.2298362610262197,1.311621358500495,8
-1.5828763861086452,-1.4287596074629354,-0.4945185644268708,-0.17104223659861909,-0.021285541650821024,1.5395457947691877,-1.3572792246085648,0.3461726614471734,-1.4691496806618607,-0.6196428816705973,0.0938135517422556,0.7319296579687203,-0.25239766930272356,-0.0994227256790886,-1.2476805425782593,-0.9993970643382668,0.30561584623877197,-0.9387647716912911,0.8193046764572557,-0.05575945707352571,0.23243691431766353,0.09540098880246375,-1.4864236604251737,-0.1389845395744211,0.20353264291371803,0.3664705339416228,-0.16955956820795368,0.3049985251609095,0.21463092129461359,8
-0.23953252375182263,-2.486394753036856,0.3809402597853076,0.3110311551920949,-0.7685950434946431,0.759083066184019,1.439567168752607,-0.4496110701647225,-0.6094684186490859,-0.12477003724317066,0.6549403512647978,0.6591793606824898,0.43759743924679395,0.21071808173823442,1.0948355983508808,-0.27462944591528426,-0.06824688233943489,0.8517397965974465,-0.8194185685247204,0.0641016739218688,-0.44775495967747136,-0.3472333051150311,-0.3421714588017362,0.4498593918898319,-0.5316192596504793,-0.15320539425366417,-0.5279228659710736,0.31815165320402466,-0.7312857258920806,8
0.9179407293432315,-2.928564631878266,0.9097776415741883,-0.32483951015730694,-0.2630969146564432,1.0790001348033962,1.862856744301856,-0.025371373089631204,0.04637502738212993,0.06155112493073077,0.32038229426442255,0.790242756319468,0.8544138307014361,0.21437237810278023,0.6821118710977387,-0.628211487041711,-0.06800230633620002,-0.24420385399711017,-0.6125193511691717,0.13692141554992382,0.4248197062022557,-0.7508177264999218,-0.48322905680634604,0.391382563068805,-0.09361666938353462,0.1973802047154721,-0.890430946041382,0.2565999902524532,-1.1517562764223466,8
7.8542540259280385,4.898671347505793,-7.96284866606983,-4.0835988416413525,-3.4852530102269443,15.656125808255704,4.551502808726274,18.510580208848857,-5.748393589386599,-3.9093155514462876,-0.3689896782578431,-5.268095490708339,2.7719975804040153,2.5607727354214087,-1.2499035016758477,4.411327563717231,-2.8303789341176815,1.4911302651330112,0.897077501834615,1.0070580293585438,-0.4620204108004078,0.3207746136710523,0.6369953308329577,-0.08064605541095662,1.204784696950445,-1.7621581256139476,0.21914781661712757,1.356677838978891,0.751096676291685,8
1.5243106717915842,-2.967510360970399,-2.333162320357658,-0.07633320133377898,-1.7026685716304018,-0.45815817892424293,0.42331540623149455,0.22095854789242825,-0.31812695692850534,0.056932356607926046,1.1247304847915018,0.5036411338830717,-0.9480098134526803,0.6108159279326851,1.345376980481959,-0.5412814908558063,-0.19075581969139033,-0.2583515197413351,-0.48293444835886823,1.7385237944504544,-0.8989025698101374,0.15030033428567618,-0.05763863217991251,0.5023178235103629,0.11165225664492036,-0.4815162497456422,-0.012307776484051711,-0.12731891978414916,0.1934028667045607,8
4.500762960055981,-2.82282440901209,-1.1142248493599602,-0.7373187768723626,-1.2351514270750923,-0.47900438298786835,1.1195633141328116,0.003079255491866113,0.5895391299060456,-0.8104036176258071,1.0123939780217466,0.463265155439132,-0.5780583303605299,0.620590189567506,1.9337464938928821,-0.5339763545722237,0.12088549095816695,-0.32927346570205435,-0.013948758105516091,0.8310478681707882,-0.8875131676886077,0.7190869412385319,-0.292061669270584,-0.22418253456971904,-0.9743796102902023,-0.2198833059502635,0.8012551273130366,-0.4119982682268744,1.5644140480710826,8
-2.9592512612758526,2.9255285850519974,-3.447714513510708,0.663517691668539,0.40986469241396695,-0.5139007501987667,0.34752948598055067,-0.6332893887797978,1.6612912281766605,0.9346252932383091,0.08452499523130644,-2.253001360866562,-0.16018011682821495,-0.17441717570858342,0.0867801438103698,-1.7779759579361851,-0.4214504700165777,0.870583284321784,0.8963502933867245,-0.08322972594956207,-0.9867978021265678,-0.5198994415008212,0.557018693105467,-0.41543968217257854,1.1579396933661565,0.31274049888188965,-0.06446114467985575,0.4517673833701732,-0.3033542249871558,8
-2.3806088197484816,-0.9230355224273359,-0.32388707000699196,-0.49756712385121676,1.1789538392648822,1.747453431904655,0.4824210383919839,-0.24546141025539572,2.541313715015455,0.004774303859959913,-0.239752459743362,-0.8081006393445648,-0.1877073155264466,-0.8328865028600632,0.8364053201102702,-1.071357391737723,-0.6532488531463654,-0.45276934077609016,-0.15675244625272983,0.05712168399608115,0.6003515142522321,0.6719359757295746,-0.3305015232928521,-0.2794139637267874,-0.37678698273559347,-0.39408002609143206,-0.07631478100058287,0.05318484790994281,0.27919497282214023,8
-2.887430409325717,0.826436219387735,-0.23907542356810307,-0.42079546657050465,-0.19364722034864293,1.7138652389677278,0.1143642221039056,-0.2640705021482437,2.436761469430777,1.4788416929382882,-0.21820900008849964,-1.2692350233355163,-0.21033908797149303,-1.1379935070634293,0.9831966172666136,-1.0968637835383381,-0.9477755488254237,-1.3263959569077541,0.6774628563700512,-0.4591816746548306,0.919540596603824,0.009643084926055165,-1.1124882269579492,0.02233429599616256,0.023482537510555547,-0.28714220336738056,-0.09633464168015182,-0.1557934832941969,-0.017671033956642507,8
-4.336710839974654,1.250484979843318,-0.9649458290497841,0.2953652927328481,1.4640256421505617,-0.4852791305260239,1.7023996758944702,0.4830310586526982,0.0025469224548532042,-0.222077796164457,0.36944869687248516,0.9089764502917402,-0.3795047302985449,-0.15990533501422438,0.9314832506921789,-0.3934128162894446,-0.4931446618635375,-0.9699177091778179,0.8586668926341835,-0.3626492633178232,-0.6470798296271948,0.20995936774074947,1.0996472232545385,-0.2658018712087724,0.03297014099983336,0.2971455847077105,-0.27524389865827764,0.24020478104709883,-0.7570206253743748,8
-2.3238903998680045,-1.6025525940197953,-0.2898399615469958,-0.19805161767914423,0.5953735141327852,1.400786614322355,-0.05049627902286077,-0.9635428583224555,0.5404904656520688,-0.9080261725813241,0.07208770817303303,-0.04278562385247567,-1.6674480449387261,0.9881703117657288,-0.08632672195332573,-0.054705738101629056,-0.37100509708177615,0.06178792170117557,1.0737715075801417,-1.3598266880855268,0.30148075596568985,0.0688439037263441,1.0478436466113055,0.11112364317097746,-0.6798549807631865,0.5612675604327942,0.0759582401668882,-0.008987031593816428,-0.7389115527305724,8
-1.2841703714132788,-2.8087537197994172,-0.38672259673905457,0.32561083739782654,0.21631106925679844,1.3969613454632939,-0.7715282388144761,-0.4312908146224156,-0.1293223075020975,0.33906768835104667,-0.07410477314658472,0.006140922662406039,-0.9505932755701298,0.05815800378150394,0.2946812365789527,-0.5490701387600403,-0.6198788800409822,0.41864383575176184,-0.6048996705164479,-0.16373085782197427,0.056318498906972894,-0.6458202785066163,1.5769089614864193,0.4122431500107515,-0.10644123461115712,0.2634252844319994,-0.21765925494386099,0.4476178640956865,-0.8641352386314425,8
-1.3297976943631131,-2.0813885928223814,-0.34773739993993946,0.4326148135520098,-0.6546452128340072,0.9736137141967871,-0.20582554368430836,-0.5099277776286493,0.683437719116314,0.055768767775005584,-0.18656290472663964,0.21707395296175533,0.0425641557748601,0.06162196171289723,0.3915628234288864,-0.6804680332933386,-0.8453114494629823,0.5096761970375747,-0.5147247340482332,-0.995519547321237,-0.2928558439315385,-0.6346572232375919,0.2035788439034889,0.2762057610414748,0.012188061835597957,-0.21085848976388566,-0.4201882912628007,-0.1716610045942827,-0.23575431209838982,8
-6.134932382612972,1.8320924525121565,-0.6103019600771092,0.3159128082592426,0.27368684471849325,-0.5859138897251536,0.05279624261294226,0.09132900733443586,-0.2990769346386681,1.2387736014855362,-0.5442027033750039,-0.24456113319300776,0.41853538475849933,-0.3785145300179748,-1.3878079141069544,0.0018263861431993334,0.14305820344263676,0.2824861170558856,0.7051628089632302,0.13391875264151712,0.6595044701543422,-0.910897487248786,-0.12065788691536308,0.1628866852076487,-0.6205118306705921,0.6532166488420261,-0.33196029230353513,1.1601904442798712,-0.0030833679043378854,8
-4.696423525662698,-0.11451516574153721,-0.2828374544659757,0.2652515021091556,0.30431626896645764,0.49131272737753234,-1.6176413072913451,0.2537535890331186,-0.04194134507496441,1.5662934545589455,-1.0052781638417754,-0.10848976125854345,0.25896263449876616,-1.9125616773763252,-0.5778094769885919,0.906836604527357,-0.41857989182843397,-0.7645736943592601,0.15580448659743393,0.6409509931394192,0.8859441054178983,-1.2882318311067515,-0.5297513609403898,-0.014375573391572473,-0.6901979628087872,0.4734624220494802,0.1755969686345908,0.5529232195219743,-0.37116812545456396,8
-3.071380067677824,0.2169893781638349,0.2925191513970112,-0.10476835391682167,-0.6602282858051379,1.5168156106059467,-0.5855333078941014,1.0877323962913512,-0.3207846799928881,0.7117289632923264,-0.739735514123627,-0.4948126442072929,0.4169584516187804,-1.233923180262195,-0.8356834423183707,0.5966483698592331,-0.539599809038718,0.28068750595215153,-0.5869243606848542,0.12190671313348504,-0.3038773557184133,-0.66202800015954,-0.3937346203189484,-0.7786041258629177,-0.6377529956434158,-0.09493451861314756,0.23215678208224302,0.09582434068262419,0.432915462415619,8
-3.7250802089910158,0.3760098721787808,0.5186718486514644,-0.16894225801104848,-0.49476062640140156,0.8833222689405269,-0.596845662098846,-0.29346373108672574,0.30793978897528196,-0.3844854731958528,0.10854548626435347,0.38860625778003016,-0.7028945692818486,-0.0890619670777484,-1.28631617630942,0.596581733048879,-0.1859482944791118,0.11420645052084785,-0.6618268715862826,1.07262330991421,0.8828655401953606,-0.2984384430323228,-0.06581543725329114,0.0907935782734815,-0.49523656677298483,-0.46675902902173827,-0.3178251558946122,0.006772454236238558,-1.3205130467223123,8
-5.911139196885238,-0.6438946089483432,-0.5158135482840064,-0.23776462330270728,-1.4825220721946828,1.630266878555818,1.4695029867181644,-0.8117566825391536,0.6073482865203484,-0.5952863040088786,0.7131886039316907,0.9143038844173402,-0.7619894169220404,1.1726043648766022,0.38253508091478017,-0.019421423057071743,-0.022582042539639743,0.6860133369314504,-0.9088806476174712,0.5377544938990051,0.521692502905067,0.05685847528103236,-0.11359405825384498,-0.10257028116141902,-0.48268396895170046,-0.5004176054401216,-0.020968997446406526,-0.38293905639843323,0.5720927242255601,8
-4.918495574616867,-0.9240879444262469,-0.06677975974236147,0.07789278008237108,-2.472708719032408,0.22044266297312806,0.9124254715966459,-0.4385993618969608,-2.049878179940353,0.47114472449714945,0.27490682789392734,1.7545852775422546,0.2115811001466816,1.559479366656304,0.22467020703383192,-1.2325459233769906,0.1850316410466546,0.5291084569530682,0.14219831171629474,-0.12577234849196572,0.23362772926993927,-0.5161590241128964,-0.1801517355925906,-0.32463226992896566,0.05540568424587081,-0.6710560647056169,0.12227918818090557,0.16594457998108433,0.3630047056432283,8
-1.4275928712489856,-2.9893651026049426,0.0014705941598374076,-0.22712937700108604,-0.8375729652490481,0.501066824541146,1.3696095565194364,-0.2511856780282538,-1.9760015597837615,-0.1976908251726212,0.8547879618534079,1.7001758704507084,0.24183200497292928,0.37195893582540596,0.5539093120927869,-0.2594153252827297,-0.21774182448687385,0.7309374749210756,-0.7586023483758755,0.9906106825193702,0.20667407438108476,0.06478342494612628,-0.20721472438850788,0.2279199965832834,-0.288566761752487,0.04840150356046449,-0.4392910500906282,-0.13898735380953312,0.5274923592863368,8
-0.18850620137986532,-3.053431435055233,-1.6688045566525325,0.24733323206575228,0.3969709582253234,1.1483197870134045,0.6771110721364864,-0.42901157455011857,1.1212088967639395,-1.3207026257029284,0.26490796401371314,1.0162088573952037,-0.28882606426576996,0.9656057028305247,-0.10177083754210853,-1.1257178456674033,0.019361146188738756,-0.1621704672681952,-0.3901603615123227,-0.40798412801620754,0.008388990042910875,-0.22222387129962387,0.13339583595132048,0.07518496849891868,0.2123851452027096,0.19360022845757213,-0.27459243365126246,-0.4352700587892429,-0.4306363883633249,8
-4.109840787518528,-0.3250545103387794,0.4059039542479564,-0.04237659459686495,-0.5844203392326782,-0.30571791504088935,0.57307881161756,0.3625590371571955,-0.8882080967207646,1.8867174420198327,-0.6268124618860755,-0.07572971603558218,1.3544891144685482,-0.45378844619309905,1.0795578155838177,0.3360685906359477,0.0999839504233073,-0.42794555348630037,-0.605410958331142,-0.7714512295990325,0.7946288457136953,0.8701170645259672,0.6845073802695296,-0.5973982291793981,0.482453882375051,0.4711094369120815,-0.011340179367340325,0.038321699972337746,0.10188464230048686,8
0.30211527179860453,-0.9321090175827601,-0.4071570206517497,0.08553692539868159,-1.2985369806520697,-1.3139407186808574,0.18384018405538297,0.552286486939519,-0.16331444568981138,1.2218437167168825,0.08094287508996012,-0.4092745033532011,0.8766705409401264,-0.0674447828467809,1.282706417092313,0.3056728133060248,0.08691754013705538,-1.3770582707240469,-0.2460026627600558,-0.6226496785257329,0.4255547888048213,0.579553479902881,0.5700595247232381,-0.7908841646659425,0.3983819788168052,0.33285022486255433,-0.57138470969785,-0.07410078462385886,-0.3833210607497292,8
-3.95298218292505,-0.08271860826776277,0.6392947732659439,-0.11108669939210433,-0.8589676756158034,0.24690895099316396,-0.33328530956672925,-0.1465827819404018,-0.20211544602014134,1.388188237917187,-0.1359841005001867,-0.5926418910666847,0.19406492008135917,0.03618442462504412,0.9938637069978532,0.15694808242490907,-0.11981042203748302,-0.9098559003456813,-0.9993677795643702,-0.7237581526688978,0.7869634800746864,0.33803771517954645,1.89356345595861,-0.03432826804854528,0.35673289151581866,-0.8097655325084185,-0.0771677812030087,-0.18769831190842165,0.13797461066315458,8
-4.034437347402337,1.148769435068874,0.16360632181619597,0.3033470729915908,1.4528455281476629,-0.8360772287946626,0.931926233343296,-1.3075913285326608,-2.5765781102770413,-0.4527594120222375,2.2219359859103016,-1.89672409978645,-1.0526422884169744,1.5045581410578572,0.5215628282197976,0.058861206937910346,-0.5352693929204291,0.8715217938945812,-0.11635778070847895,0.6714871242843916,-0.09088387556605412,-0.6376713488881529,0.05880121330561997,1.6034492785201906,0.7331862971507388,0.3588845505005148,-0.20918876366499412,-0.15181027681737075,1.0426638487125723,8
-3.378312073858841,1.2909063772313008,-1.3926566797465412,2.129666113298925,-0.7793233413959255,-0.8095836919043038,0.3211823196799362,-1.9820659416979063,-2.6709513442128774,-1.6556415982366355,2.017112149760967,-1.1866705798519255,-0.12624927427570556,-0.5756519755300169,0.5158050201436454,0.012376212028928848,-1.1013831368344813,0.17638708198715392,-0.15784212862838362,-1.4191978087872994,0.03508370886170832,-0.03559308807353361,0.0037610785707524372,-0.09022369009475686,1.5661131754932114,0.4465798436287238,0.7707856810297855,-0.09694937236951416,0.22255979770463516,8
-1.2379074708400106,-0.6942478942435342,-1.2174584355910276,-0.34946102530704837,0.2537697770688021,0.43661387673833446,-0.4500146332824726,-1.451187716354817,-1.2374663645857393,-0.7770810126631693,2.121297124603173,-0.9897110054329699,0.1979803471184558,0.9500398516701558,0.1622111181836542,0.28864012171715864,-0.9783618968581654,-0.16918996710240636,-0.5819840803243065,0.9022698737028587,0.6029571693031627,0.5811831708551554,0.5717621660459868,0.3771104509182247,-0.4101608131159153,1.6285803879208156,-0.572522233180099,-0.32641148076741544,0.2375817662237501,8
2.5640502622343213,-0.43489788256445394,-0.21580541434709505,-0.5649689263129316,0.4387799624361759,0.7186860951834783,0.1484183331925207,-1.1296556879085455,-0.5680079221677715,-1.5499992829078235,1.9825412907748294,-1.6898508198099507,1.0835591045269712,0.14048003501974482,0.3507239047956938,-0.5055671058773613,-0.6040234744278823,-0.5100062588137452,0.21555219330406544,-0.8717482740378825,1.2325609240636315,0.2748736261941655,0.5615541143077617,0.5557545835492391,0.00762524172818678,0.5771841738989598,0.24570859353677058,0.08779237620083948,-0.343368596384033,8
-6.982009339816902,2.6478108481047578,-1.9016767831331864,0.6422064299562728,1.8767509752208626,-2.2112118868619106,2.1994484413459805,0.9547103748118025,0.45396186671997224,0.04577219252164143,-0.8827812351938359,0.46340529354156856,-0.9325920839519869,-0.8877836763393704,-0.5428656543098886,1.2964151950491445,-1.865023773139151,0.4549563183686119,-0.3530518992765994,-0.3879574778841574,-1.8578510341844268,0.8400763816730406,-1.4962513531282144,-0.4115998121004698,-1.1488392010507196,0.14199296257162153,0.7185632137822716,0.1753337080373042,-0.26948353716003953,8
-3.4391645891022873,-0.1113357401554742,0.055026181751387404,-0.3611628743918961,3.4893628454571286,-0.7856449206564583,1.5666352673163209,0.8479104605306447,-0.8845135344020051,0.21792971098961017,-0.3149905437879011,0.5581532301913497,-2.5331913449913612,-0.021396705574628482,-0.1835368515448077,0.9997247066663493,0.09149753783746521,-0.7457196859240404,0.4547732737091498,0.4420445085138579,-0.5837986567498724,0.4629825214036215,0.07314711194191767,1.1972083325871297,-0.713255720827831,-1.6692592757109357,0.42277999890831297,-0.03744224101842284,-0.6620375668870977,8
6.687204845105257,2.8895781132943927,-2.607347150348602,1.0802322730927372,0.31753141726175305,-1.4017546211520377,0.9181110279967393,-0.4915397330320722,-0.6169450854742745,-1.5772313815752448,-0.09826080051119114,0.7082214208024639,-0.892025475332751,-0.18674438961522746,-0.733636417212083,-0.41466346088638334,-0.7109428715832938,-0.8283185532179498,-0.050267398720437055,-0.8858671782989486,-0.29512349797618403,-0.2032112872657771,0.47389738764828393,-0.28042760021442587,-0.56817416523717,-1.543740622237868,1.400347776022474,-0.45701183478767127,-1.354451481673307,8
-3.508433563597721,0.634438630908131,-0.23507625447560904,-0.1786875871985629,2.8522349342172992,-0.5619412695362905,2.7752622307381927,0.6850020086253293,-0.5774237535983002,0.39198868098194356,-0.36238700163451676,-0.19916380284393326,-1.7647441214493156,0.5221657749723924,-1.0908957096362137,0.7330980494799517,0.969785246473426,-0.5507604424797966,1.6243114739513689,-0.538290116386841,-0.25650299040459323,0.25092853830773826,0.2282272523270237,0.44930250003147787,-0.25533283313718463,-1.1634547299759401,0.3829350273227768,-0.18643503011419713,-0.8332312832355461,8
-4.871172273096726,1.3277578523820697,-1.935462072479725,-0.4294142797964813,2.4957722433569978,-1.0899364338976174,2.121913030246028,0.9192188820353319,-0.8733882883785403,-0.21159025021660144,1.7787652666782485,-0.471203350061668,0.9968362725942419,1.1630758471421776,0.1713426406156692,1.7564659495481147,-1.4305970060144921,-0.4298414795124533,-0.3701805788154105,2.587959248858002,2.308030692933627,-0.7240134440783687,-2.0223885419770222,1.4544056591792633,-1.4685581291760195,1.8938072827944528,-1.052103809166031,-2.196201414028501,0.9325418730012351,8
-6.817162107332429,1.9831225217370068,-1.1156624717091916,-0.051194452391824255,1.66954971349244,-0.17198968384499977,-0.04228370004711971,-1.1913684075293949,-0.8983632958984953,0.13320872207957526,1.3423759482515953,-2.7822351837048873,-1.6602031232729484,2.0080051059643713,-0.3182558278415079,-0.21045197701363344,-0.278103588147886,0.6707725012294137,-0.16998818642049415,0.9801678873588991,1.4010218879266978,-2.1912792744883816,1.5783509006546612,1.241828172943049,-0.07410574889721329,1.4630930521069838,0.514313244439067,0.13476205973105657,2.2531923507661475,8
-4.6227232992381655,0.2299874240994074,-1.0806036028066854,-0.007397369484818012,0.6113372750884403,0.7553138877915057,0.18351235744735425,0.4208765469998693,0.16796658829384997,0.02411303388372734,0.7567936074924837,-0.1960125884993301,1.344979317467439,-0.2480796511017709,0.7409809756559528,-0.4688316531272055,-0.2595291040877824,-0.8348875573307254,-0.6357086573285055,0.4876583245265243,0.6396327754211267,1.1037126990833004,-0.7547071636055716,-0.019438626905035162,0.597854062890575,1.8951286524218818,-0.25333583682380195,-0.9674377324701883,-0.05559355136368921,8
-1.1209688199362458,0.26515586799063046,0.3056608624539716,-0.5065201853709494,1.163933822966182,1.181421950807622,-0.5456054551107662,-0.8781547514461854,0.44057101060505666,-0.40358218141527197,1.543200418372103,-0.4385883280808601,0.8052905553407936,0.5440936248693401,1.283703340970648,0.096143695952286,-0.17222255449375604,-1.6472000758972691,0.3166241127753963,-0.16695202997096908,0.3147553618001251,0.154495689968339,0.0587612217467047,0.40861699597432893,1.1187176296957346,1.5909677396219208,0.10989209165506589,-0.7125628411207465,0.30452162818159584,8
-3.814538133585397,0.26535668043575866,0.22523125243627676,0.1774471352711665,1.8548718812040697,0.6270403079675534,-1.7088776981044875,0.5447213879820515,-0.8286092827557545,-0.07432999125094254,-0.7214127073972092,-0.5111885685108477,-0.28398118203510614,-0.1460627908456864,0.35876017052757153,-2.160806314831395,-0.7332173634171072,1.0094368904765558,0.4994077021429255,1.105303926430285,-1.0310834354076577,0.40835166628117026,0.09922117148183077,-1.5979947708761097,-0.2947205573298092,2.24043020763678,-0.8261577472366298,-0.1212232969445081,0.43796140743798667,8
-1.474865063068417,1.3508018486671611,3.046291763816495,-1.0601940487990398,1.6405241686258814,0.6678186189251625,-1.8239647242297954,-0.4931831557532279,-1.6235063074290788,-0.7391085242971419,0.3811049583900336,-0.5829230922217895,-0.7589297403049072,-0.7229570438967251,0.918477058861084,-2.081221221652328,-2.0459531794197385,0.23525505075619182,1.415046823524314,-0.44685519564197507,-0.24508394966025515,0.41006771449342005,0.3036827419216433,-0.5665797259061994,-0.15863156322029345,0.5016273651439359,0.19931223260942402,0.4751550338672446,1.168737422292089,8
2.3704293452380325,-2.0388614625553414,0.7335272843940934,-0.44333657202736654,2.4819856232309836,2.2537779339142863,-1.8756909721334933,-0.18254212527066258,0.9547659616215792,-0.2722392823612097,0.3472415891326051,-1.423089625455305,-0.6940712416436543,-2.062064244260494,0.9867255091062972,-1.7493147867374506,-1.0602323053747922,-0.9346733516089789,0.4373872393252449,-0.3680672491772874,1.3544954224094268,0.4429565570666302,-0.08606212966358628,-0.24935267151907464,-0.13791559735304468,-0.47639524219019325,-0.50808269724419,0.11559004011137983,0.1226144529997293,8
-5.841842274943417,1.2087066961147512,1.2230928918270545,-0.20990586523809152,-0.7752762482758402,0.3197061521280979,1.1417590089662035,0.1675013394941931,-1.3174620294781085,1.295210543787678,0.22637717779849273,1.2469092555956724,1.5563294558960858,-1.0667590345547027,-0.12354187533988346,-0.79670884201521,0.9487882937067788,-0.7565489610092978,0.5719487523637176,0.32937372021929723,-0.38779487257118134,0.3982473270909773,-0.8007006555833994,-0.6345834012209399,0.205038454337261,0.4405002104860942,0.7104271363658958,0.9824250080463028,-0.5241977040594473,8
-3.446741848355714,-1.3351529061529077,-0.7278237350142697,-0.011627566254439918,1.4490617795510308,1.5826754114921395,0.11662745398531717,-0.08445703516247355,1.4929833766035536,-2.1270298846782754,1.088146006541114,1.2881057159601075,0.16812839095399162,-0.8239132879833545,-0.42461929056589726,0.24628094285046653,1.0155210430709938,-1.0078255803210439,0.12483902043695073,-0.125263799691015,0.0480458724838784,0.09729546160752778,-0.9882614377067622,0.15791109497742176,0.7735772182107569,0.27827520305475195,0.16381438687188785,-0.09131864774715676,0.0809779763888217,8
1.0991903948188055,1.2275832715039225,-1.2998582317249479,-0.5008534978545515,0.04032225671935449,0.6401047258684177,0.2400685208432234,0.4289684694398027,-2.2266160822769616,0.14915203657705015,0.617143686273218,0.29666626977869887,0.165559663151905,-0.9866026297607372,-0.3627490367210779,-1.3362172628185998,0.6587137512284951,-0.010107372178530978,-0.10473428196354806,0.28071836639064435,-0.6462999002222015,0.011247754593390256,-0.03422502910603106,-0.4214199478465107,0.3775146747399538,-0.2471447344037021,0.7232631157909797,0.9383508930546676,0.5618994851448863,8
1.4292538527308831,-1.525551205196631,-1.7079355614800555,-0.9750018886014382,0.06702472178990815,3.2644597958954944,-0.6286179948441795,2.1873767034126685,-0.8958970712763057,-1.751196811460679,0.19749463906243808,-0.6759121498873364,0.10968265780234586,-0.30257702618734367,-1.3798221444705832,-0.6988982862755092,-0.4946009970388858,0.3710868634249928,-0.6903340206507057,0.9940625895124389,0.15703082649813277,0.7238275198530781,-0.45504186849344813,-0.1590210364363683,-0.156031191101449,-0.721039603739054,0.9340674162970198,0.2385297458797763,0.6947400912401669,8
-0.4501976938623936,-0.14477611500213217,-3.037749770942666,0.5294835444569043,-0.09823130363038245,-1.0346086488278643,-0.42705867284075527,-0.7112530366380606,0.9293688666701533,-1.0075758506721797,0.6738301815671837,-0.37643782079258326,-0.11325526324243258,1.5531849498547796,0.45192517439481067,0.6023502344599588,-1.556434942269428,-0.49696842441257394,-0.6785546454580991,-1.0053105576227683,1.200602506828279,0.009862778238266794,-0.4541684919203824,1.4980799581872257,-0.00018010578318762628,0.04338823361805747,-0.23079127308390782,0.32833829950533827,-0.8570362805087418,8
-0.9760190331058252,-1.3532440396851866,-0.07107354753767774,-0.1871639411283646,-0.28219464195264665,-0.8897574421261596,1.7145234469464867,0.04002892631477747,-0.23158651474223557,0.6951595508971087,-0.08028557915547199,-1.2733569692711668,-0.631618551773021,2.3965382736788094,1.0101062889510877,-0.29985375487252436,1.1866336930656707,0.43665492262617767,-0.32428802668571804,-0.34089897514774625,-0.6596414220670553,0.5090900442191973,0.062487193495249276,-0.22128024638245036,0.3907379740547418,0.8714614470759986,0.23805561339568232,0.2775681950371867,0.08772044638927777,8
2.4952164944208794,-2.2540024486067884,-0.4435144340788039,-0.37932640361218195,0.21627660678451366,-1.8782387870641222,2.5698738411909683,0.41749832462793146,0.5511225448247059,1.4644345864486223,0.558608899505685,-2.20565238559059,0.7700208034064511,0.7355525443811769,2.170916383037435,0.5820712649747577,1.6297548828970245,0.20340536310964888,-0.39761154985726166,1.1291123953148243,-1.2311005193747049,0.9286605374986637,0.33710777360947264,-0.3568058318575745,0.4420958667761323,0.5753695626297234,0.19804602018032855,0.8308604345092869,-1.1079279965731939,8
0.006729344360343491,-1.331748803165882,-0.8590789183836357,0.1294301196616306,-0.9320526706732452,-0.9396461865286483,0.7462524605051888,-0.5119383379934491,-0.5440935192422856,-0.1544526646926512,0.030367733265183328,-1.113778174783323,-0.497807887821105,1.4801418693535424,1.0194032875403274,-0.1779726886565055,0.25669911681163554,0.7995533923304344,-0.7035265100797475,-1.3765969314661495,-0.6137269831728065,0.8567955267619015,0.33663229283273216,-0.48431379229369037,0.2053538699042366,0.7641661080373303,0.6054400836173498,0.9383989591324756,0.3071045334304776,8
-2.184258544223665,-1.9944299972017099,-1.7583982958510962,0.12829567442644105,-0.4413271542811771,-0.22856857604531752,0.9601481179834974,-0.10294613563777973,0.006687832861921088,0.3571085515151054,0.8516612144338638,-0.5996916600598351,0.11963035789473503,0.22140889688310122,1.080897268706078,1.4022368527869773,0.49904098017132215,-0.5321661964990206,-0.27674283010703093,-0.8912642433810611,1.1845718508105707,0.42858514333347114,-0.082618255170871,0.013558246110258696,-0.2758388092251692,0.859322685872478,0.0066149500572308655,-0.2955393492824231,-0.49738307868358667,8
1.9730351184365746,-2.632261096343193,-0.5329622446096814,-0.11259400986405033,-1.7502734646516822,-0.7719704087966809,0.9006666473853334,-0.24936798787370681,0.231255204859249,-0.25694844322589583,1.5077496649017506,-0.7626176110447128,-0.08873821228553219,1.4313952396877516,1.3174177161195926,1.100599505164851,0.6128748648053655,-0.857504642695493,-0.7984536108234551,0.2021013932022517,-0.30262235081997674,-0.03289155631117876,0.41034969891761663,0.0577478739332776,-0.3240975150012843,0.20388869819017,-0.7329772309201203,-0.5922928713414725,-1.090517191182873,8
0.36839694275989826,-2.632118002168524,-1.3596234712359614,-0.28686716803335877,-0.3671529246431593,-0.31870267142068726,0.7548865087728835,0.01934409595213711,1.3240669158645944,0.7710814096767459,0.5847794821916618,-1.5958240683315503,1.4212049655246992,-0.3903553437480853,1.497039140036524,-0.1261730899515674,0.8698869750276194,-0.9946710732623618,-0.4251618082027695,0.000888682139979152,-0.07172047996204212,1.2476597281304878,0.49683645071715404,-0.6960412993210797,-0.4928721204391752,0.12104084388144384,0.22290798716452503,-0.9280650631594083,1.2346047805756288,8
1.5266888406541472,-2.900896530482036,-0.8582505269380866,0.14511922177792494,1.7315321672921697,-2.090719547293035,2.3303488256417366,0.6928059362098493,-1.3963121939570218,1.4950139316945092,0.17819391431990966,-1.5760724698672612,0.8714435633439981,0.5981113274763779,1.2237985738820953,-0.19090399223952265,1.5122618835467205,0.35671371683476566,-0.1091078864319246,1.1030341398355967,-0.10540707967790477,0.8087405768122594,0.5307786866912227,-0.23609548605964523,0.0746900368418911,0.5392684434919198,-0.23638670988531651,-0.2649573698511494,0.0588325669191979,8
-5.086434157333535,0.5058657332494488,-0.20849292392999333,0.09970440719605002,1.3500863689879201,-0.8345470255350416,1.476589408342888,0.16807927938556985,-1.958867534312635,0.5263832626650738,0.7651717912244969,-0.3150500911412845,-0.6766994666673876,0.789315577250733,-0.5664205381611246,0.28213536619933877,1.45073774319151,-1.1002731991220427,-0.26361011322904004,0.37177049502468706,-0.4520711574713167,0.35726461952460287,-0.07287370939153512,0.08810517224136828,0.5727687143059181,0.2968152185734989,0.37152455140315654,-0.3340472711136016,-0.1617063876424473,8
7.062320699332224,1.1549966460167298,-2.1493871873838932,-0.003222179865219618,0.27944671865652254,-1.8880703674516135,-2.444459732019287,0.04608031741597156,-0.37102361368780296,-1.47472364321674,0.22706721519654083,-1.0637141053868577,1.747639077474615,0.3307623846129826,-0.5797734255150462,-2.161250007821983,-0.08268149721218836,-0.38364786853743943,-0.5161673401931098,-0.10591452842847476,1.5955005019871276,-0.35285588012090346,0.7980636620494028,1.2652140549507762,-0.6178264595005526,0.03588804044557142,1.0581801104047233,1.0689553651536219,0.07123495455130846,8
5.202703384873674,-1.7959093597928553,-1.5370822553513215,-0.1344848005550514,0.3550430860609217,-1.305781612342252,-1.7472886139620227,0.10772177754162199,0.8194201320988503,-1.36793184172121,0.34132042488406195,-1.3998162723462477,1.5186492120410122,0.1476528471585242,-0.3410200705920934,-1.075407725501424,0.02747103140238011,0.03715266981121581,-1.5589751734617998,0.4893699117478598,0.44615085575946367,0.4034939132832234,0.2471604238130503,0.9282181622391616,-0.894515904513407,-0.36766469206626173,0.44996190963361055,0.8345440319497414,0.22545794706326772,8
5.075221456472891,4.371106763731453,-4.1204454186316894,-0.32476855065373217,0.4258394896976383,-0.38914217724878436,-1.1869494705320294,-0.17429776057747942,0.38438305912326115,-1.1838996186222361,0.8040995796933814,-1.268257752969272,-0.5436803624963431,0.16852103738742116,0.16360445780387847,-0.22965462051417354,0.8785901846061553,-0.8744993223018438,-0.5264923912598765,-0.3632437482717472,0.4562023492915695,0.21233891437251806,0.14866037864593898,0.6468263639410674,0.42581983908024945,0.5168058375221479,1.032775011186767,0.7479669226656782,-0.9068681888459387,8
-2.840149765361694,-1.3121566440861954,-0.5652273284777726,0.011642765742726309,1.3312792034700527,-0.09914275908786899,1.0019852284121074,0.3497360045851261,-1.186689017636175,2.2812136285791387,-0.7047879041082034,-0.7842479565429784,-0.47563688856229996,-0.6471115113071614,0.7918505464185615,-0.0022920384659295026,0.07478169694429193,1.014236339330137,0.9558534881021533,0.6844070145374883,0.6819246848593457,0.07610268089661013,0.720635986534623,-0.05859558247667118,-0.5597551102947569,1.2826816839812036,0.6594559108092628,0.24345979566110296,0.7746970689613062,8
-2.732810812307895,-0.631727413166399,0.6903621643270894,-0.12732680989663459,0.13357236862468858,0.1675589278146264,0.4327032216289821,-0.44303181827206134,-2.462170382128042,1.042111221453208,0.7819528358296951,-0.4935069820360178,-1.6146445633929878,0.6999150052965758,1.0896030464380486,-0.12252604585795002,0.3547405549144189,0.9400390448970141,0.8753127738791928,-0.21808097298425186,-0.09629049460296196,-0.49649905711702724,0.29993066672184787,0.6707896752232065,0.1270918519789955,-0.40663545595644723,-1.2715137249377941,1.2351568822211108,-0.2525535928889774,8
-2.6469316647715235,-0.4287565568412404,0.4390203709055655,-0.24310608764496047,-0.7123029139907398,1.265729639901242,0.23476720651330216,-0.844097405945499,1.6901610139635754,-1.1576240387258674,-0.11682324304726384,0.5458367103427154,-0.14272841916725734,0.4140299720760224,-1.4345554318443658,0.394640756339303,-0.1224978065192865,1.0474003313515938,-1.4208272879578203,-0.2885754957825232,-0.429607332223117,-0.5175527532815116,0.5835882162840516,0.5906368893059727,-0.6072851128085183,0.11098002512500081,0.11232348029444471,0.08302419863731858,0.4825506434383429,8
-0.9050832439332277,0.460568492076142,-0.41394291223691987,7.378984809258938,-0.828340819133388,0.37109073050183566,1.379894154308999,-1.8689960345148928,-0.3221451886600904,-0.14703025169246353,-1.1094391412303743,-1.5925433387757335,-0.43142833939403713,-2.6279721091243244,-0.6463998567357847,1.2266741144381144,-1.2272266030282397,-0.29207760269983696,-1.2343947211650013,-0.6786632298869125,-1.6404494051739273,-1.4617435538304155,-0.4755155585526888,0.977534857966041,0.9554044067715532,-1.0159337039130842,1.6653147743233,-1.1649499049427332,0.1684537268138042,8
-1.1622198479394463,0.6613139676131106,-0.6985904339737948,-0.7496980480783967,0.19221064488493442,1.8649007880084687,-0.5535902522809045,-2.3988964567885835,0.40472202564942483,1.062327978118522,0.39402486802075704,1.8146683758850881,0.6297672743109229,1.798131544600368,-0.9964919270189393,0.7467191647248693,-0.6023751154243601,-0.1483780396490582,-1.9277353202359218,2.5742240658136346,-0.6239261805966367,-0.3200363441247023,1.1051621402718643,0.612756310939578,-0.1294968496586884,-0.7659910875160701,0.507947257657617,-0.13673066069153858,-0.1998206434644684,8
2.2408734321176462,-2.0066173922535357,-1.434431495818907,4.118564451135803,-0.08338259333192134,0.055600516092924136,0.3170758135285079,-1.2626090476352312,-0.23144183405671404,-1.8420234538689595,-0.6974963464348123,-0.45780831983693626,-1.4153481065106162,-1.1019195506984412,-0.7044590586005568,1.48790401708536,-0.16941657993690803,0.6423697534274325,-0.7713233327803666,-0.7539971572773648,-1.3865095049257155,-1.0174006206116786,-0.3390780599956694,-0.15736293188023098,0.23507485438149303,0.5474650414436317,1.5205575850279371,-0.1672251747742972,-0.5027965039702075,8
-5.634369460828931,4.511933869524756,-0.5840314998526258,-0.4101951020858931,0.9371434824112116,-0.48275240737881747,-0.654277695463187,-1.1825202594655528,0.41181604015971757,-0.483165385630802,1.3715391963555805,-0.9984939128812585,-0.3635883370621892,1.2216617827786154,-0.09807511439556858,1.588935260152321,-0.0064797258179663,-0.45433433520333855,-0.22360388053808303,-0.36508473695824334,-0.8263793719771194,0.29232752240455473,0.4109902128212527,1.005744523126347,0.20417319384187152,-0.3132614316241734,-0.24069980376153854,0.5909886612445048,0.69180865587548,8
0.0435460748110205,1.6257602250902454,-0.10340437982464917,0.09317568862276342,0.2059456669507695,-0.7648803449709355,0.25492647765283183,-0.9603115392015418,-1.6500138396638078,-0.17512733066948447,1.5254547697007357,0.26841299869049223,1.1148766598985074,0.8842271692460019,-0.2753383106604347,-0.16852704134782626,-0.2593299077050743,-2.4577495379021275,-1.2049648532534916,0.6765826999216598,0.4098280814521963,0.8344999173566005,2.881988919351179,0.6138145723799981,-3.4197545040158284,-0.5104928737114032,1.6835930148890978,-0.7030150057496011,-0.5453780279338631,8
-1.2931055012703243,-1.6327807133086674,-0.7807700395728032,0.32287259390232936,-0.1939172467485418,-0.346936179982041,-0.9998339993663807,-0.2837213856301062,-2.329400889686344,0.34307024856642365,-0.19589527726352593,0.05353133631727023,-0.15298112163056965,0.13643581720120224,0.041609929887346554,-1.1699438840196301,-1.0971708754499345,1.8515463005038872,0.5068678715559467,-0.11128549495129351,0.022247334919606777,0.35720876264712165,1.0393550439524637,0.3232762097655138,-0.5748739267997025,1.0709444335874692,-0.08665247165683766,0.7697614962532672,-0.008371883233464812,8
-3.9940600197935154,-0.9352212096643435,0.19699059155878879,-0.19156084645119864,-0.07596247727122715,0.9429672028549028,-1.9129635133919538,0.5081903241699358,-0.6334234123346077,0.5679299168196223,-0.06547460503881845,0.07276094689331364,-0.004480378363056494,0.3486598646052108,1.7921778414727692,-1.0218908399795934,0.19373482130440725,-1.431781476183853,-0.3315443219023187,-0.16300907778533014,0.4243323379408212,0.09233487029091363,-0.290372165309086,0.42729140883821937,1.7650059529295283,0.18208046761960028,0.9478787729003268,-0.44364106720068225,0.2947079036402428,8
-5.4735068978910535,0.35666292978913877,-0.16087154884257704,0.11755587536366786,-0.4208685122441661,0.9272351443595925,-2.120816943379076,-0.3110632069509849,0.5409238373809543,0.9185449678152905,-0.5012121498877513,-1.0861990262664614,-0.287773785481225,0.17448308214513064,-0.6050788948063595,0.3590450637794407,0.20273231586665544,-0.6233509042457261,-1.2960380951371797,-1.1649708594753274,0.5692971177441646,-0.13210375326832988,-0.3247725256609825,0.8602155649225782,0.3608534716202806,-1.3684224289940266,0.12914528539807962,0.18778549320338392,-0.530785369206065,8
-4.558040312080994,-0.3125425994309886,-1.5685437811416372,0.6903786148240757,-0.6751701996750405,-0.11921190971805164,0.6496969864538603,-0.3941580938809726,0.02074851672456008,1.3468292134493105,-0.052765614827941835,-0.2869314802160135,0.7494241483869899,-1.128953028858191,-0.45506937020700283,0.1838373049037619,0.6690116458847997,0.9255176593157917,-0.016389658934630194,-0.9843790497344173,-1.2038524459518145,0.09143584470780419,-1.4323080328929834,0.14315903356526674,-0.10396482285245827,-0.5894250092221284,0.38052732873041095,1.3994480840449806,-0.3365510041963437,8
-2.0941157663648426,0.03228428168461119,-0.2744666951357586,-0.5113550067421562,-1.8431680942246451,1.5499901631098885,1.0507017071520823,0.8185892948465993,0.19454223817015232,0.5621929762648082,0.05023472032656007,-0.4854434523875709,-0.2710034105230914,0.21790717800631626,1.016433325487323,0.532757432066753,-1.0687952912071448,0.6662105223363423,0.11639225595156028,-0.20704072695654066,0.0986406390888439,-0.11642879489521343,-0.8105246090918873,0.6158202807785947,-0.5311010243512478,-0.04664460594991625,0.5117631161455368,-0.3297030983055396,-0.06143388207028591,8
-1.280504661112687,0.6005290209382134,-0.8074440004590406,-0.10007400241360316,-2.056648777791287,-0.6479117955543829,-0.7729962790323744,-0.23190111230316532,-2.0186756869202744,0.2258193306116403,1.70886764069706,-0.5359240981293147,-0.06651070985827796,0.29274183273165805,0.3955672343840115,0.35616263778493784,1.230593679598421,-0.9802774584261328,-1.3000275144359672,0.9896814415277528,-0.8379495848713541,0.03428331431061328,-0.11130289332433847,-0.6971436195855322,-0.3720051614633145,0.0108792593679313,-0.014074194298025401,0.19864346381194312,0.06963404701378154,8
4.615569404137103,3.394962815267143,-2.1483539611888265,-1.2649251536326342,1.0134220134510337,0.6099885925474043,-0.8780958501376167,-2.9997995886902133,1.28371720999406,0.4793236572536472,1.7314859035616779,-0.3947704911920206,-0.5042608631761029,2.2348653940002663,1.6040733999973136,1.1093689069369177,-1.2934199968948394,0.0512801732198596,0.7979578381389008,1.589580236421523,-0.7961142019565308,-0.7272486798839473,-0.1594415693255185,-0.524169027099216,0.7413172667782073,0.24789469469778505,-0.09155173706533676,0.8970891856108477,-0.9160112251511454,8
-4.736917927558979,0.5217552181246125,0.8837417930518431,-0.3963494945524395,-1.211359560147635,0.3936594210703941,-0.4916725071356362,-0.2253861370106992,-0.6486688379744275,0.31785439439095575,-0.6637340386969098,1.1071601939176925,-0.4259639589885389,0.17465246494978778,-1.769265925724881,-0.41706429968178377,0.0856326662927676,-0.14018303800539167,-0.2688006063234257,0.5684173349315947,0.7222445423081649,0.1783227676721779,-0.027180573054563163,-0.7744385106015859,0.5304363131755159,-0.8493445261405863,-0.20585385741801157,0.20793751319737658,0.8954387546265179,8
1.9589239420512763,-1.2820318083479196,0.08210808314041958,-0.29629390744410683,1.9401001053039073,-1.5840911817410275,2.0749108217623475,-0.09491144887744342,-0.8221260933041522,0.14016411886162544,0.5092540935138486,-0.5166688032626959,-0.5501582994093988,-0.33684744153084817,-0.929672170416392,0.6443631333810228,1.0022426791739056,0.511373229512842,1.125236798764995,0.23205761147346596,0.022167693894398082,0.05209841570936327,0.2821020147465335,0.18843436842524097,-0.1109747206697504,-0.5091342354530266,0.4553176877646274,0.14458436903943206,0.7301205932330497,8
-1.1331463205168952,-1.9819984521152882,-0.1987849070967255,-0.17137300045519976,2.1890300773216578,0.520088568125405,1.4998062810614416,-0.732776024593632,0.4269344236688502,-0.39887508980359243,0.03475489607165069,-0.5678881484017358,-1.513721353097422,0.14824009311322828,-1.628176186931499,1.0857063337748034,1.3726014313192825,0.6870972038894414,0.7138017734039788,-0.4480575351581749,0.015153062216712584,0.2619261743297855,0.801014512308735,0.25059347806015203,0.1745536964214624,-0.15289629235789698,0.21242785792624044,-0.06503673939112285,-0.09176196639083942,8
-0.7212225641260588,-1.7837517742987488,-1.4654497230021208,-0.0005261726381148304,2.4009071476937636,0.5522145405333866,1.5794842162652762,0.6944025625154755,-0.4975805920370707,-0.9695992841351077,-0.8998381992526738,-0.37699181088794775,-0.9582612115723442,1.4445196390276902,-2.366189990026198,0.17356444485493772,1.5834528147431388,0.5934859742355866,1.6194211043697113,-0.7590993969763725,-0.6270475156642582,0.43287263350659166,0.5420495504533475,-0.0759210770999884,0.3779230383560528,-0.4958725359310576,0.32738930025714635,-0.49449334210569856,-0.32681813791389525,8
5.210059687192814,-3.111208841440827,1.1280836119352045,-0.6523603749163537,2.0448743227809394,-1.5740470513916673,1.6440051216789902,0.4807859926034248,-0.35627830936213734,-0.781458111424729,-0.8547702616950899,0.3092181716920077,-0.25450646647534847,0.6628747772358133,-1.2395170797684103,-0.6355456307506525,1.025047147813085,-0.5693915311687785,1.3238616790246895,0.5611376615090764,0.6202521597573619,0.24117189667331723,-1.2664081544205328,-0.09325102306929266,0.37546449133709475,-1.7123870837624797,0.8402642698660283,-1.3633359377881487,-0.7188857730617669,8
-2.472202726098227,-0.30197413723938654,0.8920254828239359,-0.39426488262880266,0.37287769632928114,1.201305279119156,-1.4820202390789812,0.016377222538554448,-0.18739582685615921,-0.49309591786674484,0.3636964784876176,0.6393779480967465,0.1743392917664806,-1.054724163102658,-0.09482107398765775,-0.5516803575804303,0.6770622346372063,-0.6119595673027823,0.41634131094143245,0.9423862834361708,0.24569504368981823,0.9131399943385093,-0.03885648403984334,0.5175127223681185,0.4073219199323814,-0.7303020198235493,0.3031202347458086,0.4108975652031419,-0.20490008516214217,8
-0.8054735002418137,-2.1147944121411513,1.0286511737735071,-0.6384796584010999,-0.33242527642086145,1.9378083998218727,-1.0173621640574582,-0.765588145009691,-0.3471350905657819,-0.588938991600565,0.36364258465183413,0.5097671806183667,-0.8659697837121473,-0.30258661671648346,-1.0823769575158622,-1.0386678196152044,0.41719660733897374,-0.9683839509248429,0.23397470517592697,-0.15679840093937997,0.24355795135607172,0.6835539219776231,-0.5500054767344459,0.07060393040714721,0.2788526483566459,-0.24338033584890295,0.15527440077056723,0.2840970384049255,0.9701681447929573,8
-1.2814194826268128,-1.6532360109915925,0.461099097058238,-0.14239585230379168,1.2722445528435442,1.6705454229014036,-1.2841365997176595,0.12557605980670525,0.40809988945700904,0.23228367519009044,-0.6834471144288843,-1.0237229696642254,-1.851986283223206,0.1098844198229023,-0.8663122678768382,0.05980917649610626,0.706214869228752,0.18814464847763243,0.17139502231037776,0.0038268041929246936,-0.2750349516424582,0.10741534192306085,0.12578162593419995,-0.10408421747286073,-0.7257570339515955,0.799087113275122,-0.34739559364565964,1.0700765099931655,-1.2612337863149772,8
-13.193002754984962,6.09222678267992,-0.3268705582143684,0.5770192141427329,-0.7801098061804703,-0.8395986455083705,0.7866735349132651,0.3743398310510469,-0.8061254625223655,0.4699327822859139,1.1694569157405132,1.1916116834157484,0.26088478163718687,0.5689537879473273,1.8257750025904746,0.6719704306018905,0.7390058420748555,1.4500443784378636,1.2793992640921588,1.4693906962420549,0.39704362790368025,0.036689481465727945,1.0148624520117646,0.5542874726565741,1.0849179328322882,-0.5669434588330738,-0.3130150233991321,0.6205748279608221,0.6437237547286029,8
-4.803740780691684,-0.11357196539587444,0.08067077090577289,-0.28941367342306823,0.09189567946086205,1.0249474795145572,2.1015769105072537,-0.11074504920126332,1.8186259893177625,-0.07371066071464313,0.04472591201740438,0.7850895376415994,1.9863422885864768,-0.5435644148841974,0.25262096192223316,-0.5013377420894645,0.261415363844819,0.06286205072455801,0.12674778874576806,0.4047079257555745,0.6868352797497489,0.5135888940731903,-0.1503568382475649,-0.5733371380483053,0.41900850386440336,0.5083424731442436,-0.682276563565152,-0.35296324873059376,0.7239205179462673,8
1.658311606561003,-2.8590783416634826,-0.4071540953722177,-0.3945745254819013,0.3304023809425693,0.6009265097230263,0.2725320462605846,-1.1673915659017426,0.7284384018252309,-1.5025189508407073,1.075862169014261,0.0058414733126372215,-0.75471707803541,-0.33885967136084794,0.13165399340667164,-0.23206618417123695,-0.6019651919173826,-0.2177101253903583,1.024169698092847,-1.7998568461543114,1.4105125149375994,-0.0014332862847153116,0.34838695539418263,-0.3003869371174693,0.48375869996009635,-0.405292911649077,0.5218208826112029,0.4572474485319365,0.7483323021807843,8
-4.803427401237394,-0.7297166880804138,-0.6209363213986482,-0.024292681967529973,-1.4958653988542299,0.5921450068546198,0.7732177706773707,-0.24024118534623184,-1.4339809465601745,1.0815360667151792,0.4224260655281283,0.9862254745171551,0.0804537873309162,0.04985561172284529,0.8232638524742351,-0.6005996121668977,-0.33875749398741467,-0.25251116197359946,0.7359907509187922,-0.27319427634553756,1.0150665131768444,-0.023595238926579772,-0.5550046695745224,0.6598264421046963,-0.20063687765987187,-0.6786809208116211,0.3943649570641761,0.1562590427516871,-0.1343275129249395,8
2.4503762126375275,-3.5800492095361554,-2.4953406605722623,-0.24494310983047654,0.5401118662449738,3.1693513318997706,0.9936391114124614,2.8460586706062205,-2.26127170547381,-0.4961648048132922,0.22173331719365852,-0.1917293036011517,1.6470958909023703,-0.616211403556694,-0.5434854122083917,-1.1325669629579136,-0.8052171516910716,0.19953377685943408,-0.2999679886832649,1.3117180676691054,1.1600189655638553,0.3269930092671624,0.15000411678448722,-0.5095172907353368,0.5896351426606256,-0.20775078871242653,0.2895901147027655,0.05368705620768352,-1.0932979927134219,8
1.12344297657272,-2.7071873524381855,1.3452784431428275,-0.20359381199280807,-0.8826921335214182,0.8011592757189501,0.327089615136242,-0.4626562908117049,-1.569928475190658,-0.39015026514649864,0.392849686739116,1.1864844592928627,0.4041986113729911,0.7290792042115438,0.2613212260555955,-1.9864116028282968,0.06716545665233775,-0.21092372245649577,0.43780919158772613,-0.11510665556231643,0.9101057907665785,-0.3465983155562018,-0.3473685620362783,-0.4925362988837952,0.43216930154330535,0.025150267444467328,-0.07621393068600094,0.20706877436220275,-0.4416371775415318,8
1.289174688490765,-3.0817576600704717,0.7414284656189242,-0.4938240158429367,0.17784489578671622,1.6277600300746955,0.1344725623465425,-0.8252791597528685,0.5457420520874761,-1.109401346587986,0.06455547336531507,0.3549879024789742,-0.25712650901251816,0.8222349263459212,0.37388528542258836,-1.5693818811379856,0.07809846157055465,-0.08115940931429524,0.23313948460157036,-0.7818673359602634,0.6473958035934265,-0.2976773312288758,-0.5103957463991634,-0.6582261343367001,-0.11375755122244638,-0.10829639490378136,0.36543856998956775,0.05335544901059105,0.5413013797393642,8
3.9479683328591744,-3.467431188901722,-1.0346158719610923,-0.36033213920193574,0.37900881550530346,3.84237924416507,1.4614845723569703,3.8044825633982864,-2.018225191693426,-0.5663623800716441,-0.40293853684707737,-0.243749897920989,1.8765172719937535,0.5775386960787867,-0.3308506466509166,-0.4029887133258696,-0.3253508509672598,0.20709134191951792,0.48550020268195915,-0.3867553933247714,0.2976223646392967,-0.6002079107182637,-0.5288395362777532,-0.19391540982472935,0.01982542600261767,0.5473017283277355,-0.8581750342879642,0.3241412528643839,-1.588589219822764,8
-2.7052418830218965,-1.6416779991679682,-0.6319502152732179,0.5841107652738616,-0.8702383113198565,0.8335799794364747,0.6362176323003622,-1.1818293799173747,-0.42646630574223915,-0.23362269309869033,0.5162177225281191,0.654209668090825,0.0036746839321469904,0.37434137627088665,-0.34305754273740613,-0.38501605486504026,-0.64864554226504,1.2169403835511634,-0.32493456684575156,-1.5731243746977301,-0.027647401009766252,-1.2277852047907214,0.263768356062136,-0.0006401518176695767,0.5022693462392631,-0.4906075262275343,0.055609231941249025,-0.8582554389432387,0.18982952147596985,8
1.0245396584526458,-2.8139465345202392,-0.43591628217267764,0.183272726688557,0.5493237351027918,-0.484712819376262,-1.432315748757706,-0.041787927196700235,-3.3104117499940444,0.4145129188517345,0.9768687787726413,0.7394766228808903,-0.23054297384226696,-1.8601950949951676,0.2597304767097758,-1.1776107771666502,-0.5639588856250318,-0.8579812811819029,1.5856327993119699,0.1958766367494915,1.3689981525198907,0.04682392174368236,0.12701697818732277,-0.9571404772097738,0.9028471282959976,-0.01919227214493941,-0.5837861763660965,-0.7787746560604365,-0.7084551690540011,8
-4.729389437276798,-1.04970851845636,-1.2708689695847086,0.11617110572398749,-0.19287735759440827,1.1695528257164445,0.8054894985303069,-0.135360693171674,1.3286876700046018,0.8948817252566481,-0.6263884186120652,0.41562707272247923,-0.16216580403079905,-0.29184401239574775,0.4302693382977384,-0.13193205956950016,-0.20786745984631455,-0.04378320601766826,0.26518334054987786,-0.9018191253725182,1.1540567406658506,0.2177058269932698,0.14164834893664377,0.3353641770908457,0.14681724043310573,-0.2824748872298384,0.3044466533224169,-0.028839199664403455,0.10028044671254305,8
2.8614818736457335,-3.2699330954293284,1.10724893388303,0.3141520939872198,0.6463750395928127,0.4238019359201868,1.9304511162019438,-0.43344037387840434,0.7760450052955953,0.40045980920094737,-0.11253523775638417,-0.013585397390261812,0.9739976131718784,-1.3089201373702892,1.1778920406108375,0.3346146291349676,-0.31782054087678596,0.08621084431089834,0.09729685510701422,-1.2081287658570081,-0.36699494545049643,-0.11138727463750034,0.6290353583356816,0.16392362195907234,-0.16383789888685604,0.15263197849929702,-0.011583422765256755,0.08755089094324202,-0.38671864467810924,8
3.795158651434699,-3.6988215415480896,1.451730325924231,-0.25011034731090453,-0.571686221043506,0.685956529771424,0.6358074974496982,-0.3245630041410203,0.629548680817237,-0.485001388048042,0.23777860512159193,0.5399695837319383,-0.1333715345731546,0.2137725933529458,1.143451390912091,0.3315982438004953,-0.4094166301076505,0.8150676888785299,-0.7709585666484168,-0.6677621257827703,-0.4221626546768238,-0.5320038638289825,0.8103406099891725,0.42338185293646224,-0.40890864218163614,0.06925410833496695,-0.5763220335689072,0.05574278193656509,0.07320599288164496,8
1.6168292999359852,-3.729779320072211,0.6359257253137404,-0.011905458440413718,0.4155132760784297,0.5394311388785662,1.3398210340938346,-0.32110504525565986,0.11798586376632578,0.5345052317619517,0.24012947906475526,0.45116167834955484,0.40142596175694795,-0.9477846205495079,0.7055460351404761,0.4715379732151165,-0.4349042145780244,0.2995074683096588,-0.11252028939712773,-0.917077872430032,0.7562282022629698,-0.5047228182864805,0.8734268075856505,0.6620935224561255,0.4338241847952548,-0.0996740781811492,-0.11867897669410413,0.49534862243508504,-1.0096570210492173,8
-0.7731542237614311,-2.224683167945431,-0.06854355002870638,-0.1755867658303396,0.666404520646461,1.448035986967024,-2.7155112257327056,0.5200823221754933,0.08815496202104872,-1.0613272542034997,-0.08541604336584448,0.6704818745501587,-0.419364063211435,-0.30737686912744405,0.5521412468265197,-0.5106040232504074,1.370213436985691,-0.142150976833845,0.06204911561762586,1.3340982446368579,-1.0962213332398738,0.20629497649508627,-0.547553033668853,0.10285979247139486,0.26976639968158794,0.46637339620033463,0.8802559152075125,-0.052869670566458755,0.17674319457756762,8
-1.4136336386157788,-1.1229512913417725,0.2518723974017316,-0.2879505115140396,0.360294142157014,2.4153298055784247,-1.5090581861833359,0.4063259188367849,1.1498556445699621,-0.3121719013493773,-0.482070628053277,-0.19613539181144873,-0.22232336123434343,-0.16994254311018303,-0.6071625205081379,-1.0370755562656693,0.5260199747543826,-1.157883342649177,0.5683548195715976,0.024442876970882984,-0.5237701365960425,-0.04953557097451895,-1.0393416072649109,0.36539818158614173,0.35431285398604706,0.5126440783785674,0.5551998758971475,-0.042343082280326766,-0.5514953080548696,8
-1.0980702695105848,-0.013884596956890372,1.0359254639138489,0.0836920497028375,1.5258141411281068,2.7982689570359494,-1.8556722650995885,2.028942183317551,1.4435304467949743,0.08741105047008893,-0.7978490452341617,-0.16499516027275551,1.8393814346525066,-1.3824064297331626,1.406169865173755,-0.5760890519959264,2.089389261446672,-2.2054861056218686,1.6084464084303478,-0.4806410233173329,-0.8593035158319812,-1.7311775803345548,-0.38284745079047633,0.3615105351453576,2.0695590390776424,-0.6259554379781955,0.8816859214333259,0.39903499156590333,-0.04032087911924516,8
1.2606680243199366,-1.8340438627194038,0.2936215995635975,-0.5021659184603897,0.4131818553384861,3.080006709403747,-2.1833698438878804,2.425354013011654,-1.2638667177433565,-0.6659267790184754,-0.152720000610726,-0.03391518476272964,0.059919808336410384,-0.614453534209807,0.0939400399594528,-0.0727671327172804,0.5898261524958708,-0.812401831024273,0.8394722484589962,0.37549421884011175,-0.07831470318095406,-0.46866385524291204,-0.7168599687705854,0.19999671395031243,0.17962522238198006,0.3886062663242706,0.9234214199198977,-0.05503445289492975,0.21958875967039862,8
-4.133520850281282,8.004290124582168,-3.228949981194233,0.09931873769490344,0.20393998023730814,-2.9681285676635034,-1.5709861573982893,0.5955626491595152,1.5446050326352807,-1.7102883617649778,1.1459314486922976,-0.9728225377032006,0.7851067852022956,0.3978549373993385,0.44032574681406755,-0.4187973113052531,0.3017476798951992,-0.29833283573592473,0.32480612811419823,0.596873654729856,-0.6882189792923588,0.9448602121241374,-0.769568819198381,-0.11216677859222071,0.9566040428677083,0.40116796137206906,-0.2501566213733011,0.7568868385398047,0.8121709639547857,8
