Feature1,Feature2,Feature3,Feature4,Feature5,Feature6,Feature7,Feature8,Feature9,Feature10,Feature11,Feature12,Feature13,Feature14,Feature15,Feature16,Feature17,Feature18,Feature19,Feature20,Feature21,Feature22,Feature23,Feature24,Feature25,Feature26,Feature27,Feature28,Feature29,target
-1.944044484499801,1.8913098172739775,5.378017300104961,-1.099764397954193,0.3199982016455583,-0.1079901111192062,0.1929979958681484,-0.5315877359983646,-1.9783579829194908,0.5053060613919885,-0.5699830543127711,-1.525391237097537,0.2604597409972303,1.909798292299188,-0.3075496673893242,-0.5338058157863258,0.9345651122872528,0.1552058870356873,0.4359229992261912,-0.8684621773471581,0.4358380922776558,-0.3757767823980114,-2.410483920227392,1.3073018574055124,-0.4470905889160232,-1.205612916339689,-0.7586683168069912,-1.1155278139438338,1.219781958076009,8
0.548890317832228,3.689145890276148,-1.0792154851634548,-1.1254974915954712,6.892609806957398,-0.1140863671396798,-0.129833369755272,-4.471122592834472,1.2817065340945542,2.509006710435167,0.0133089829127849,-0.5146062860982203,4.098260881867957,3.783447762934288,-1.6738866396570538,0.8824110365765334,-0.9311780047734526,-0.8524355195237884,0.1226809250937581,0.4286534252809703,-0.515136024966212,-1.8149374854908984,-0.6597527793156346,0.0920142991802773,1.1734486845278154,-0.8870147560653496,-0.6576840446635217,0.6763395916072462,0.3790526464824545,8
1.0447432183398102,2.804072997996983,-1.7791216139469164,-0.3582107401679216,6.132624121067576,-1.3093961522232396,-0.7313162131032,-3.381683366321401,-1.4447343283402914,3.028355390487993,0.4852398485772606,-0.3067251009525066,3.6163603074117567,2.5770380539337667,-1.175524305398028,1.8971544072005404,-0.7147441426306328,-0.4286560533491329,0.3461539475923307,1.1271498402041953,-0.9288727359748732,-1.5922030643277651,-0.3899525164510702,0.3435266106762126,0.7401599442517159,-0.2443405528523089,-1.3371287595136592,-0.1682813270683005,-0.4648804287283363,8
-2.8487433931855946,-2.220173786048319,-0.4987969809263343,-0.0545470850948891,0.073405859978174,0.927516976057816,1.8918074308705783,-0.3815484990482384,0.0175509528105455,0.6594934714904098,0.8173766244733861,-0.3574057614759239,1.9789035154593035,-0.1856672662713145,0.936922699912927,-0.7012234410956594,0.8614570028416331,-0.9101517374442568,-1.2992758751705626,-0.3989177834640929,0.662053882530413,0.6713059621583767,-0.4630034475050319,-0.1705162743485757,0.2498164060044771,0.0195054544041139,-0.3808888490304425,-0.2221269193466893,0.3648511510463242,8
-0.7156281186631881,0.2173621583360728,2.032460744354741,-0.1448257431364448,4.375659662846361,-1.7620258102999282,1.3359404865363336,1.7427209481172083,-1.771379122515337,0.8196117294643485,-1.5353830912060908,1.0435037450661184,-1.1062514373001942,-0.2818755945778592,0.7760429239045233,-1.5995054732519758,-2.666175871247217,-0.7399489924928202,0.2307119006900145,-1.128250905057831,-0.4283523922869236,-0.5110738425590419,-0.3464225257059458,0.1376218558746824,-0.2893252095803107,-1.0893435780048737,-0.4075555097702458,-0.0070709468300155,0.1175995909304729,8
-2.5627191747959333,0.7929458515213648,0.5245502130482594,1.5535266225867446,-0.4528837714095555,0.1201295714275425,-1.1127551301994223,-0.8825256656221552,-1.4606329646435376,0.6315976258054811,-0.3859384810740148,-1.3776785020656068,-0.3839240717068565,-2.4784656999060566,-0.0872091296303245,-0.2553321178447278,-0.761434397914366,-0.0613151679032795,0.1540094173302589,0.39018377554934,-1.492863932888132,-0.2624906612486339,-0.7958270255938091,-0.9674293572290256,0.2611796449451733,-0.0088164232246373,1.7034485833804236,0.2395638934467281,0.0538446673767819,8
-1.3935732029003454,0.9032325583060368,0.6037881310272978,2.5750250697706143,-0.1317755201371254,0.2300013075101783,-0.8157655106713808,-1.1645559720962806,-1.102114165711397,-0.4235084359751395,-0.5322202026537407,-1.5657557050837447,-1.2200094848427037,-1.748399028555759,-0.5380655289263145,-0.0975838152608271,-0.7370998759769896,0.2491179379213688,0.2400518849622826,-0.0290680916249701,-1.813531157854365,-0.5350162783665606,-0.7861246265007774,-1.3410270377155102,0.428844900836834,1.106467447420104,1.9531055753195772,0.0872200701988921,-0.2457595238254914,8
-5.293565273157572,2.465475330186505,-1.24126751717235,-0.2854404672313691,0.2489516868196743,0.231497020672877,0.1869336120742494,-0.5734140181817888,-0.0849708138785574,-1.9222575849244257,1.224073899225587,0.9225877276812512,0.3013177868011776,-0.2055524102687352,-1.2334058134452643,-1.8589280648669,0.2657496611813912,-0.9657133750249078,1.1953742888910794,0.1538345562980473,0.164555864198266,1.7773061394317102,-0.5617532564922112,-0.2942228317003166,0.1212890112789212,-0.482359592157742,0.2905833064879315,0.6079605983274348,0.1894882868203515,8
-4.764606919154088,3.0276278655901074,-1.014297875110471,-0.7342226375487311,0.342826213913625,0.7736073507844589,0.3851512484244937,-1.020189661870565,0.4453890343475988,-2.34091668997845,1.8971748146039051,0.2856189849863988,-0.7697991607533321,-0.4613721469784612,-1.1092233456520495,-0.9950770436796376,0.0928968059807272,-0.9938002465294314,1.321899994115976,-0.2788424033496131,0.7519381629752799,1.6916784312094826,-0.5974334618749464,-0.4116546790711533,-0.3866137547947766,-0.7004283833911735,0.4760042588904589,0.089925574976504,1.113891902582977,8
-5.898959905240524,2.581633257960199,-0.8262829323601779,-0.0352711496475489,-1.0861351384949367,-0.6648204865487898,-0.4009578423390838,-0.3465275563336832,-1.809928700496341,-0.5834496833964247,1.5663894365843063,0.6477192866584454,-0.1043781389316157,-0.3368057987219993,-1.119443345977858,-0.3774954395161551,-0.3058459368260216,-0.2274049499605056,0.9327750839027724,1.0796353004591708,0.5449488199831141,0.377865178643861,-0.8065159551142308,0.017417341396071,-0.6052575892015319,-0.3286759256255869,-0.3131717950386679,0.2832250605212748,-0.9943246693326928,8
-3.2016420774910235,2.4972321688987,-0.3906253038895566,-0.5642501575703898,-1.5402033126169776,0.1187823542100358,0.1426394248079834,-1.1526129557929308,-1.844475714235236,-0.5648795872802679,1.5666158640895171,0.2481223173943804,0.0681417969185752,0.1100478521154923,-1.0165166402213035,-1.1737268608703686,0.7814365179421148,-0.2690476565373577,0.9469268223751568,0.9149280853328458,0.0378619579440667,0.890817483934702,0.0222025936494209,-0.4985238391863834,-0.800761216818736,-1.181533418696946,0.1909146387952168,0.3126422491584938,-0.0889064456978092,8
1.780873204690638,-1.6619160713036736,0.9122598844261358,-0.6967721315166354,0.1767985363727058,1.3005818449577968,-0.2584080693155711,-1.0846082550355698,-0.7130010986359695,-1.5377779111420335,1.6833176294902386,-0.160877692507708,-0.4537326355459493,-0.3954529629345387,-1.001170491435971,-0.6547131923514946,0.6409629257335895,-0.3488312649046692,0.0851154874602266,1.577347699196609,0.894975683905887,0.5014322134264763,-0.0796498832394127,-0.0093394570925438,-0.3592942596046107,-0.6945149141530744,0.2484835283122403,0.069786771584414,-1.089566305857555,8
-2.227353158205387,0.515277697689233,-0.4981572309878277,6.325419553013128,-0.9804537086117696,0.2315658893725393,1.437881005291245,-1.719800394357243,-1.6018630952967636,0.0330281765093181,-0.2672217160109097,-1.954106465696675,0.1503123493211277,-0.9180182327051626,1.1663934680999084,-0.3317753439786624,-0.6685534531969424,-1.2294498444936652,-2.009117650528917,-1.5292373037964857,-1.4381311864856576,-1.5860795997216717,-0.0880147714421454,-0.2801097667158765,1.252620775632212,-0.7341966571985876,1.2082155326392745,-1.0412266261848098,-0.8680033821695149,8
-2.16971142176896,-0.4807255838502142,-0.5134254738332774,1.112131348299633,-0.4518770219785934,-0.5830440909688009,0.0416559454663032,-1.5758738175068996,-2.753395317856645,-0.7696384425082152,0.7431214648367516,-1.217010726711816,0.1040092766947562,0.6484553803140687,0.4441102147991145,-0.4367193319708748,-0.263173682235074,1.1867835844923098,-0.2848706408312377,-1.5041370225646196,-0.6211838648324117,-0.1309143751947598,0.2713009517767779,-0.5227130673850171,0.5557958100438966,1.0474128082309506,0.9502060335185336,0.3805860733168279,-0.0893169482042046,8
-0.7559745567837701,0.0316409901695109,-0.6375907445260381,0.3582631922032838,-1.0093304584366696,-1.303216065214271,-0.5677753809777535,-0.984626111057152,-2.4552085018448144,0.2797903505872921,1.4198014066496598,-1.9173295951546057,0.4481137152329117,1.1830337153438728,1.0994293430361242,-0.4877035788588814,-0.1379888636986304,1.1140203572311862,-0.4275192790749895,0.0335547083424208,-1.1727023378084125,-0.1380202260786885,1.0531604509265136,0.2813879759266928,-1.1655284376177295,0.9479235482422256,-0.2568251530004298,0.5849714277639689,0.6386030790272361,8
-1.0016352463096638,-1.6478326484838657,-0.5413479344792999,-0.4302881731765452,0.4138009851030486,1.348599280936284,0.5436167550264493,-1.2695354767105334,0.942149725828456,-2.452117545667929,1.4955436857787916,0.4308398048998258,-0.3642492605953388,-0.011658927257019,-1.516003208596198,-0.0357622515331611,0.0740441062220218,0.1946161874588151,-0.9246613786658292,0.3673102472743019,0.0306176654203121,-0.2851575812768446,-0.957982150437562,-0.0612006732664079,0.2736436627116108,-0.4867906192985022,-0.0595439895742362,0.138520944709865,-0.4095955758788974,8
-0.0406365725013917,-2.0273420898604018,0.4154806386425164,-0.3657455281182114,0.7047042679966764,1.4305219111390282,1.7202734122248229,-1.0684781162275017,0.5600723697091836,-0.8489321096265409,0.7993171544387405,0.302877471614295,2.142894239361265,-1.1824109722481315,-1.4033342869675576,-1.267288001174346,0.4538600628319627,0.2729866300444538,-0.8374927155289499,-0.1352184977783034,-0.4121959281880036,0.3485492902749152,-1.0533073668064168,-0.228693005204037,-0.302067654130429,0.180526399275992,0.1307151782294968,-0.1599905504281763,0.7761487993113344,8
0.6768756177832104,-2.3461754795276493,0.2237951464914156,-0.2764605109456746,0.1055358954908506,0.6781081581894326,0.5880527524735967,-1.1384167409313353,-1.4693829817034072,-1.490345411788876,1.424557145188267,0.9027756073996868,0.1919450409188389,-0.3906139574127107,-1.1912492561436236,-0.1101211126646322,0.0871783766131908,0.3244841807156345,-0.674591055286403,-0.1154922031117366,-0.4199336310640856,-0.4415315414638385,-0.806951839709294,-0.4340752715504793,-0.7543255800957905,-0.1320998207940459,-0.0714612852140587,-0.1867161972411382,0.4475160299446731,8
5.209966935101933,-2.8220229460077517,3.361827370127476,-0.7665292693531851,0.7919010436225419,0.9082121737313142,0.84266876502311,-0.6372889780836952,-1.8813274734391792,0.2994700260699296,1.0033641520312186,0.356230595732028,1.8167717575893731,-1.7184379906907747,0.0360348131333937,-0.7607478193448088,0.2685742966165735,-0.3824922018496983,0.0779626816586103,-0.4439895558087876,-0.6492809733490305,0.0515950457756129,-1.0616400997761823,0.7212674063945804,-0.6667896379982031,-0.3748127675230362,-0.4600138012165307,0.3915199150534558,-0.0731621173781563,8
4.702208196989908,-1.2809731297177829,1.2300422382657186,-0.434354192005655,1.3631993581521389,-0.8841996865743202,1.6341943568791517,-0.1152060519117987,-2.1454868577907544,0.0940415609969359,0.6532160613947952,-0.48648080670958,-1.4098361236532373,0.9138505515841177,0.9773624052062292,-0.3966012897969767,0.6898833034322743,1.1930238455255668,1.217551847345393,0.6232753314486164,1.7301342737082857,-1.0151883412020943,-0.5382865179269455,-0.5373762692233892,0.4055194946459395,-0.4791581325467735,0.6775085926825819,0.0196229371603997,-0.0942847660372786,8
1.731511734938924,-2.179555035855779,-0.5229465592364949,-0.2886947269304436,3.55216831312512,-1.843783119392771,1.933931251574728,1.540105514709971,-0.3962719402568089,-1.8387504900530465,-1.0253581058372931,1.8615943417180203,-1.1407556366357667,1.2806667186444924,0.5874622859040906,-1.737726196220436,-1.7650938696447849,-0.69496664252937,-0.3206414676075274,-0.2871101979271509,-0.3145440900671873,0.2443580160987726,-2.004375520165929,-0.8210008221404907,-0.7932335771992062,-1.3901589991851706,-0.1344056242401646,-0.5011849074309875,-0.112389901740659,8
4.533220990670506,0.334391224942602,-0.3907811871638423,-0.3804820827083961,3.746331165433378,-1.6005210041277993,1.6432832777509816,1.1489896919739526,-1.15017354544061,-0.9330673668515947,-0.5586376923569011,0.7241280704774216,-2.1664598937798,1.1815093469685125,0.8895171616079369,-2.0096973432595244,-1.3778927877210612,-0.4052219025193992,-0.3151573904108887,-0.3390384791477412,-0.0299897099421037,-0.8322872995103884,-0.1374638670563316,-0.8158635209017738,-0.9087609104050244,-1.1359316887831472,0.3305611782244938,0.1786785776708552,0.4133478763413929,8
-0.8389458703947686,3.441959280506285,8.338573254643302,-2.4538103625639347,0.5061223051854601,0.620544447220017,4.348823795936626,-1.184929681147016,-1.3482666127714678,-0.4986762174842836,0.2018622976315509,-0.5095696775677282,-0.6062000106167302,1.5683027643635892,1.0987836047100383,-0.51907149604361,0.1975058233906624,0.3396894027120601,1.957949512834793,0.1734804808755782,-0.1201344811190078,0.6286926680124659,0.4598665796164792,-0.4162285699943599,-0.900706302878596,-0.545042595815309,-0.3661887662659741,-1.4851420345513804,-0.2275837445336442,8
-5.208074321771156,0.1490005305615027,-0.1138603336326543,0.1586066670257706,-0.39635646809413,0.8658590069720784,0.3468347550821501,0.1577654324940963,0.0960075313148985,1.389869610172641,-1.0750575262971114,0.196473701426778,-0.116453899712188,0.6360563256809754,-0.6190183080519505,-0.8752657615913887,0.961958521908461,-0.0818857630080973,0.1656894534941478,-0.2565341775647358,-0.7325288561848311,-0.6661516134083407,-0.5661966242182861,0.1787557172217022,-0.2972432073106107,0.4554570959879652,1.0878040729268552,0.9461969834961488,-0.9979562475508216,8
-3.226481486575665,-1.4702476764490453,0.2831333701983975,-0.0017752815723767,-0.1384771290349996,1.1075864235846065,0.1559466686602674,0.1930040263233221,0.0463118352222633,1.0221794108226596,-0.5518336471588713,0.6501528244002414,0.2008683006437329,-0.3024063524994557,-0.4850909567963186,-0.4110732548633655,0.4492977002716319,-0.8374827953612328,0.0331506464388874,-0.0776899886027624,0.0076506211796804,-0.6423186955966685,-1.2434787182068572,0.6704746251079051,-0.4631791244997749,0.2258166508531622,0.7151794661070334,0.1040107160468468,-0.6714347020371788,8
-4.91422126628648,-0.6722401711821293,-0.3706966436661828,0.2114131434134413,-0.4452824280205289,0.7971347475499356,0.2274553036226426,0.2956063360851024,0.4634578966203088,2.116370952110155,-1.7629869024441998,0.5139919379601391,2.205653564258087,-0.4118756526084729,-0.8459710503260741,-2.204174124394145,0.9935891704997364,-0.5376342550670284,0.2457437767236888,-0.1069146619388103,-1.1120001068929453,-0.0234040916076704,-1.090419772153132,0.1548532108988793,0.0567738858343623,0.328120241522578,0.8226879258823221,0.1460176945156159,0.0457907661636388,8
-5.460976143739123,-0.2803761869285953,-0.6043309538765231,0.1949689187293921,-0.3140274378840094,0.1152841452924858,0.1541925607288659,-0.2259892944227769,-0.6850045014105324,1.2422134012211623,0.2100225584406933,-0.5408251655917492,1.6027411475627116,-0.3435807609834234,-0.555736008783596,0.1746027946902651,1.6374238386993527,-0.8842117638680811,-1.0153152925400235,0.1035609466175649,0.4571685357890323,0.5852077555986841,0.2610262649850195,0.304379134493844,0.2390756719646267,-0.7397599024288599,-0.3024490138886764,0.4668862802085209,-0.7205538226740289,8
1.6395102411829297,2.814389090946801,-1.043791432490822,-0.1973017069172457,-2.101131718498136,-2.9670099059303934,-0.5294553683139828,-0.4241666413235662,-0.9318480821893196,-0.3693749071002924,1.145190458795169,-1.596687715944973,0.7449396135532408,1.108008886173347,-0.6183216384829706,-0.7784819141431202,-0.0370662847063141,0.2060417707658338,-0.3117712606540463,0.3444910120587945,-0.3713870247947236,0.0644715267687233,-0.1226216456406947,-0.1264005537720777,-0.1207764927043548,0.119880354599633,0.5833829021239002,0.8370736538901481,-0.0846980417560104,8
-4.439566526961318,-0.2088475295647123,0.6156706843316762,-0.2463624234072055,1.1084460883268097,-0.1231872266988328,1.773030020606803,-0.1123472959550894,-0.5043309876424293,1.4347252724208004,0.1712304904605226,-1.461308738458548,1.0521803900428093,-0.4230265723010887,-0.3046659641187506,0.8083903400502531,1.910296569951484,0.1626883572275414,-0.9868711483448538,0.4454244945307233,0.4331257729519369,0.8561087194049724,-0.1513639664733821,-0.5585049709133924,-0.4271869326350372,0.5868860221184143,-0.123023664383729,0.497656505377641,0.90277839234086,8
3.932921322205189,1.0600441559174,8.36029125552091,-1.7915072174860174,1.317540470102428,-0.8768124882189846,4.30315091418677,-0.1543049219149104,-2.7131222048572927,-0.7037167259034826,1.1297032306279675,-0.0532688366493752,-0.4504339733081672,2.3625759880562227,0.1831331605100358,0.2600445857689071,1.0216729529223547,-0.8776178935745109,-0.306658974519948,-0.5650559463306547,-1.2390577006015742,0.4431036927749023,-0.5040689182528205,0.0803133405504583,-1.2758638830867088,-0.7881083080809312,-0.1688828824090715,-0.9459135045783592,-1.1337875702899958,8
3.821569644875327,-3.5837575114845786,-2.154620328230193,0.3272524598953641,1.0558367329834792,1.646987581880374,0.3531158595801751,1.9988220678577373,-0.5499394563334077,0.7572002376403161,-1.0098873904786403,-1.2672089831662974,3.6754408818427584,-1.0387993292693982,-0.1796179089916008,-1.551750571920504,0.2250168178290594,0.2201631577983482,1.2566330741955982,-0.4435905806677213,-0.820003467983998,0.3000110660688478,0.255756196513705,-0.9915975563934232,-0.4619464916594223,0.3674673666505302,-1.3623770711394811,-0.4244406453576941,0.6401568661554176,8
1.3164912296445483,-3.172794634116505,1.5779437671383978,-0.4169993635812278,0.8655118079535629,1.572441642608,0.8590602410166788,-0.5196955213990231,-0.5045404826131283,0.6862336067845813,1.1192402646208797,-0.7613922092867891,1.4923972423696168,-1.6262091603689894,0.9787655721159486,-0.4508355366441195,0.108712579492004,0.6812120402434703,-0.9511169364492204,2.3989404011816604,0.0279217008351215,0.4412347377749687,1.8518852385315476,0.0736858343382162,-1.06574706955151,-0.5327861600298414,-0.2262808532727576,-0.7415609399816889,-0.5536115331845405,8
-3.9263499596014735,-0.8400646865222071,-0.8734878490399455,0.8757385169095888,-0.1405163907102045,-0.3561406039709884,0.0853031142645555,-1.1110593892197738,-1.5110045189925303,-0.2313006918534239,0.6907895934642168,-0.8819834749618071,2.0778809477140667,-0.6079991373022997,0.3462253176399,-0.4283324671058716,-1.2114341276751115,1.941353977851128,-1.6350704843497272,-2.0478464781750016,-0.4269581854234376,0.5424792875674963,-1.1682706970279455,0.5741157937190955,0.3744815936044114,-0.8195924675630537,-1.2706992045588663,-0.6008392129928042,1.2187705993796576,8
-2.813655406567386,-0.4700751186967515,0.405597706199265,0.3143585609627742,-0.3004490132244619,-0.3791848973779458,-0.1327825257138689,-0.7239399834040722,-2.413545470420619,-1.4120939824429728,1.5927503216182184,0.4739449221658972,1.1478016640679376,1.0574529882663537,0.2444244497051546,-0.7944279526546155,-0.0962880097948794,0.1162049215921466,-0.3305142327328667,-0.7199654679644375,0.3661490061499931,-0.6240823050831737,0.0062014561737414,0.2601077590230121,1.422600988992914,0.892171443538624,-0.5810817277631061,-0.2563576510102742,0.6888100342230807,8
-4.639113757307721,-0.6969086742505863,-0.6223902196717841,0.5504027109734728,0.0351680874109299,-0.7581381667327963,1.3208192835301409,-0.6346067431951636,-1.487331457748554,0.8162057682602141,0.5547350578870994,-0.6376266897539876,2.9459543130717463,-0.3318318311826574,0.4686510284994288,-0.9459171010722964,-0.0551122535314803,0.9780279491732732,-1.662993574960017,-0.7289191661521626,0.1304341923941396,-0.331305681693696,-0.3534951068359294,-0.4680215330678975,0.2465719063174816,-0.6971381671977517,-0.7329976225158715,-0.2401460376969808,1.4825104481872586,8
-3.8806544199241455,-0.3129740803601439,0.5052001251522,-0.3000425152708004,-0.534430940046016,1.5571747561343223,-0.7474942827322906,-0.9245935549471204,-0.671153598783529,-0.3410216332186928,0.683211764617686,0.0146620171940938,-0.6206171018716049,-0.052986136938303,-0.8830977959545246,-0.5831305002277005,0.3546000379244762,0.1294358089084684,-0.6722167745606304,1.166828122001662,-0.788541062896921,-0.0475414449499343,-0.2841124948546439,-0.2906147356220995,-0.0443358044173347,-0.2117212173262884,-0.0151302447926527,0.7355685451380075,-0.6980539930366685,8
-2.263471381346907,-1.0868165238278111,-0.6542568656217224,-0.197789756744582,0.8002072516567498,2.571868417726199,-1.018789246983796,-1.1008830466473338,1.4124910234896466,-1.74713316678634,0.8220956887980052,-0.287191456697263,-1.047166336768352,-0.03961455421253,-1.3024763571963818,-0.6828057657635177,0.7392689303104165,-0.4911796623760711,-0.2659310890943255,0.2468224179132558,-0.4056780411348195,-0.018835331862136,-0.149816961637206,-0.2288068778903317,0.2309329450042338,0.5542022284032928,0.0197046611238102,0.24995434589639,-0.2998221628350032,8
-3.1650087390364563,-1.0952153508285705,-0.8495061022084283,0.2151249767133039,0.3139243523724353,0.6833730601247794,-0.9971096553903064,-1.2422243113876306,-2.393423461886113,-0.5550726626288667,1.9237827952730489,-0.3007783635945731,-1.5635051611081332,-1.0269570072236187,-0.8495236792320284,1.0517194912629897,0.0514893430635114,0.4447570895790925,0.3773122760149935,-0.044202842160728,-0.2078484824108974,-0.3503587670953006,0.1527544119585107,-0.1135397024088411,-0.7882545834180414,-0.043317791704532,0.0755857558766349,0.3423198968043562,-0.746220998820497,8
-8.420421675007892,4.163505082801213,0.2023544689184065,-0.0197351979577665,1.8093481915518257,-1.578154069046963,-2.029089724986342,1.838027197045993,-0.4530423153693698,-3.395767438989623,0.4677662965833037,2.540161035238306,0.3691441311542297,-0.534862945726206,1.890813150729317,1.7761965073676738,-1.6775984855731854,0.5176033184695712,-2.369281908878419,-1.1706281922665387,-0.924263421941724,1.92008955484411,-0.5500021745442902,0.7487317184073546,-1.6136122520980878,-0.9198319513625902,-0.0784784675195248,0.6557953430804023,0.3061403788605304,8
-3.612652326150016,0.4314108988048561,0.4291852610091078,-0.4077250092923275,0.8740382977307274,1.515660993875767,-0.3469351023178836,-1.1431057285307382,2.057783651654576,-1.1226799468920057,0.6948375604244215,-1.6209152956837003,0.6335595533362746,-0.2986454264610101,-1.2369936605639402,0.5632878925038304,0.4223701456121956,-0.8110679819405915,-0.4394975295376686,-1.413903622670723,0.1772457701436093,1.3456648584981674,0.3014621081563089,0.7839191965924829,0.3360633836199789,-0.081107903552326,-0.4257158872874556,-0.2544388315548583,-0.4033891318345042,8
1.4651468486910495,-1.0964797307051883,0.685900562653818,0.3733153179561126,0.0876176485158805,-1.3837166824878484,-0.9273901405660544,-0.8070395061157787,-2.5723660357984826,-1.026516211617982,1.048256151542368,-0.5314678310134008,0.5270493314076894,-0.3613135229060496,-0.9666116112793066,0.1339646709360135,-0.1112705219500666,-0.2453941885746274,-0.0986969034231561,-1.3213070561723406,-0.1317329592576282,0.5753734356579003,0.3291783188410674,-0.3366298695616862,0.1188726899117885,-0.1735554939444706,0.884656941529218,0.0907699374365005,-0.2803714876673255,8
2.639851892476524,-3.4829108108200217,1.6201396944329765,-0.1239775536336657,0.7981129768297112,0.4281452034037682,0.1243371532432119,-0.4007704912875854,-0.8565296055741293,0.1479390078760592,0.1899734152881647,0.3415659849413294,1.417506417608096,-1.9706967907201285,-0.865941587908573,0.0321273655702135,-0.0545880826830639,0.5136926071346178,-0.6241642841970682,-0.2939155726183792,0.5103552599901222,-0.1500485008906968,-0.1767438496150642,0.2846269295414911,-0.2429581281461356,-0.8605608397873038,-0.1780421564782905,-0.024215616937357,-0.1626715544019296,8
0.0958558088278665,-1.1732802725410958,1.9245535125925644,-0.377686803458628,-0.6439106480815211,0.3831985082652454,1.184139934639648,-0.6373716573969043,-0.4206215376473639,-0.312657172814876,0.698809590759448,0.767527376182381,0.5045047394662941,-1.053137358923531,-0.7717079679078779,1.1606009441664245,0.2934059024167673,-0.0782128478936405,0.0132321159471155,-0.725535461825685,0.431603321097497,-0.5214660027113646,-0.6524306548544669,-0.6437249376617644,-0.5401250396208683,0.1225470155559026,-0.2447050032290922,0.0418043574518154,-0.2299245120148821,8
3.787874169633757,-3.8136801262554334,1.142873317950378,0.2341988961895146,0.036489305474458,-0.3334121904101211,-0.7354869203055135,-0.1786697920022984,-1.441885018688687,0.2272755765969866,0.1108719499191201,0.0236687419320616,0.6578431754744909,-2.124696380668144,-0.3138091861739891,-0.1554362699074877,-0.2091599828269153,0.5047985769438273,-1.0450845889871598,0.6694452589721802,0.2929982944698838,0.1443790592536729,0.1163488676185644,-0.2579779477515617,-0.1900856102176329,-1.0682132146660082,0.488886754898242,1.1591911945207969,-0.1972894617518372,8
-4.966730587541901,2.0209856383875358,-1.5161801864172524,-0.2077110610524619,0.3228571579942011,0.5519272807591481,-0.753054435226189,-1.7841152976072938,0.7113316738818464,0.8124112661626386,0.117764036800829,-0.5714905044022616,-0.8835012858468384,0.528965094080097,-1.3205016288098037,0.7107389190113158,-0.0636286627067527,-0.0173583123293066,0.647611706399042,-0.5148495117906163,0.1233846063068244,-1.0626695064849898,1.2738691863111438,-0.5897362522880872,-1.0482285523945178,0.8192575860492185,1.1231329181635117,1.2215832336381214,1.517738107304079,8
2.9950898029898867,-1.8040271667115448,-0.5215710262184472,-0.0046272172690801,1.3690880054175143,-0.1470742610741478,-0.4804981778390096,-0.970304157962214,0.5570762877355426,0.1932713044540094,0.687658805148508,-0.6004504798699386,1.419845440952777,-1.8677223026251804,-0.7439714285755941,0.8614181179258529,-0.1353835349537085,0.0486685370107236,0.4389428061280718,0.1031636492020955,0.7143685677482791,-0.5219917008172776,0.6876363062766353,0.6258905575998781,-1.0795178452682517,0.1736438081118377,0.1076822700106781,0.2041965289168889,0.2903305513091579,8
-2.3478373381843216,-0.1416421561017679,-1.5505166695511583,0.0954660080908039,-0.2219953112151335,0.5508157813534116,-1.255158202411057,-1.7004022405986845,-0.603651977241385,0.7980379674628405,0.6047992536670903,-0.1329964663947945,-0.7873225535180607,0.3383069852154417,-1.1468621777630252,0.7449265189771387,0.5190986038564043,-0.2137731497772957,0.0044560686574864,0.3924886499418687,0.0778509243982627,-1.8896037958837972,1.839778803182187,-0.2078622392215252,-0.6077218353107238,-0.4025997923445219,0.8237995072396632,0.6310657277062017,0.8149517462615216,8
1.7092140097869726,-2.8935632834465554,-0.7693486445078471,-0.2722310528514234,0.7926782835048423,0.5294022645719416,-0.9821456056875948,-1.2992220945141346,-0.2768730947281904,-0.9959172125311212,0.9544765656809848,0.1248229095557825,-0.2896633801073833,-0.4029168587619784,-1.1961336553992916,1.569984879164467,-0.1890639493677161,0.106553451937828,0.2947883206747076,0.0235517631275353,-0.1545606497460054,-0.2136227636340018,0.4131963819871949,0.4286893613315735,-1.2713654784170847,-0.400136662235834,-0.2460698455857511,-0.5544968086129828,-0.2543136066517317,8
-1.29531640584371,4.496604317937032,-2.201682980174502,0.1655965120035252,-1.0278628408023898,-0.1390480802368296,1.1216723578852317,0.4545051958976728,2.265385625279919,1.5023042672710414,-1.1779366640287312,0.0677498594068848,1.145448026127312,-0.881549098478549,-0.6070843515664419,-0.5183151453530965,0.5637051112097698,-1.0709047959036733,-0.1363732936179545,-0.6176694496611783,-0.1816576674475966,-1.0228506218186078,-0.5020366362623939,-0.5388761121059276,-0.2976746827140158,0.1745416982408257,-0.3404234099036965,0.3259312275874084,-0.5590833145648019,8
-2.7167031842518417,-1.4192296326113578,-0.7825403739494347,-0.1516580162032484,0.3609642382968453,0.6092279637101087,0.1306875624042698,-0.488130283774641,0.3735104330570747,0.2308842290472066,-0.0944334090558241,0.3259403861644644,0.4695596326209475,-1.5435975037342018,-1.0228517386115812,0.5859206029301792,0.0937803737890972,-0.0134979061551462,-0.3703984660517787,-0.1739535565479437,0.6001439558201437,0.0546700773616532,0.4992050384176854,-0.1470121919945747,-0.9791435020041728,-0.4453198263726602,0.6563323445478774,-0.2227122398659375,1.35073948921007,8
0.1012103591352118,-1.7184083223352884,1.456610630691494,-0.5128123771216949,-0.1180405288419822,1.0603143736708218,0.1379427258383815,-0.7375354487249451,0.3653231492660077,-0.5098520076445229,0.1434556978106553,0.0513977330629207,0.2921840789247653,-0.1926620408580368,-1.127538840226743,0.4938387329647472,0.0967868835485128,0.6610969901088793,-0.3775896161829974,0.2278816255409479,-0.5114759505220795,0.5355359637044875,0.3797929328677852,1.268622934670992,-0.9174668985895408,-0.7623349945585441,-0.5519343006812368,-0.5628625204777924,-0.4633780880941979,8
-4.411137970837846,-0.8013661661393893,-0.5743646516175407,0.2022668670610426,-0.5916414500952915,1.2890896631795297,1.4398835414813709,-0.7999464079593405,0.7430428275988552,-0.2037417531030047,0.7942151998469442,0.7138445996622421,-0.1317634050755656,-0.3626636452685134,0.061217062540714,0.822253710957523,-0.126468340726344,0.1035091231090753,-0.1049855176190871,-0.6278599018854545,1.165911193714351,-0.6417397731208933,0.4445222056421641,-0.7294523502461563,0.2183401621710385,0.240577008893067,-0.3114398157417001,-0.3623718208383635,-0.3553789788252062,8
-3.5295047587742903,-0.6760518111340592,-0.4440206318143608,0.3037289309203768,-1.3125376599610767,0.6708583139267724,0.5549355712526688,-0.959601997252085,-0.8007687862174435,-0.1028412386255899,0.5679814759026545,0.5454964223628654,-0.398864772021723,0.5907474784493765,-0.2241122157431427,-0.1051604667106576,-0.1290404952304716,0.7443617239164431,0.32821151746726,-0.635531271841666,0.1801919485724612,-0.5748421347403917,0.8688796460427073,-0.9216784751785048,-0.1387887666173502,-0.1186192476441354,0.017004980961707,-0.770674174072216,0.0410224218923224,8
-0.0914768883528029,-1.1222849461755902,-1.5962145161677002,-0.0417520332582942,-0.889207587740568,0.0748530815855874,0.6664847418428639,-1.0797371999990957,0.1002014044088308,-1.4664953459735672,1.469498777737284,0.5216710988154548,-0.674819769068183,0.2031313425366485,0.0200361392108104,0.8483157231951288,-0.0818107114048515,-0.0254982667857857,1.4148595908457875,-1.221725972180817,1.136219648649187,-0.5729402264924892,0.1205710758820152,-0.8173425218397422,-0.0156770675947094,0.3135918415257508,0.0845538014357027,-0.6774852279962905,-0.0255659984207894,8
1.729834589685745,-1.8313518091249736,-0.7211807584212017,-0.6772227827570286,-0.0701478727076587,0.2253505007843003,-0.6823751984683095,-0.5706648727350296,1.081871476043111,-1.8036600014248456,1.4470588672816784,-0.9106195624305012,-0.317717668511625,0.608219201091394,0.0560427010913083,0.1628752614410836,0.6666605773996614,-1.204489063669667,-0.7710933103703923,-0.7100919685780872,-1.3610677482107738,0.7510194048095381,-1.1959237326973422,0.7213902249564503,0.6253445845754846,0.1719264819087781,0.331423906919113,-0.2274402154618089,0.6934661356282872,8
5.829999192185386,-3.4337251163968,-0.3406900625009939,-0.8047454273689321,0.1972320505317956,-0.1753342305554934,-0.7399550595871992,-0.5055515841088332,1.2436947946192694,-1.1154206348590332,1.054889161946056,-1.8562163395512363,-0.102664289178568,0.4317954655008696,0.2117951140657721,0.3800965834165026,0.5975005947291481,-0.8794051306723322,-0.9821489194339528,-0.4375190942898074,-0.6768166899870641,0.5811835998100994,-1.017996468348353,0.8495381171868306,-0.6534371794882101,0.089761438428722,0.0129965647257066,0.6998337830591532,-0.0048999488597092,8
0.8890189452602228,-0.4585305722440214,-2.347315297065369,-0.4456402056353586,-1.188763704602016,-0.3724169932071079,-0.9182260153186332,-0.3509937634316158,0.9493378903620144,-0.5192059490887431,0.8111347656210655,-1.2834606691387382,-1.0700825412339183,1.0376908752177338,0.4507593145047696,0.8637170796625011,1.0707945675651938,-1.1773795121195163,-1.2308503153834234,0.1305145682031176,-1.0042818448875186,-0.4217832947071656,-1.1853362233033926,-0.2620423776258892,0.1588356858227431,-0.3966704657323498,1.0301998004118849,0.3719510296090469,-0.913693584253703,8
1.4478326619080828,1.2790969479853578,-2.2898744835160967,-0.4418500781365612,-1.9112814805923937,0.2654076624431352,0.1585664242347078,-0.8317340607944879,1.121750364352268,-0.3131301734483096,1.7005923011081103,-1.274739384001821,-1.9359209419801584,0.7336465704507481,1.2856777258314365,-0.2027611252192165,0.6236976022542057,-0.6362637494161142,0.564671715335924,0.6060735223950493,-1.7194912130041455,0.2697487258071863,0.8163771913002106,-0.9466319617806824,0.0409003969614916,-0.3666860327013916,-1.2777587550402985,0.0275764624818909,-0.3165298053903904,8
-5.445549733188502,1.19007943517035,-1.2749860077130468,0.4176552154224035,1.1462787197123585,0.9346754392088789,1.1233661110980833,-0.7180028869231281,0.4695320329697645,0.8540605791578971,0.7765555221855154,-0.8046110154486621,-0.0415107156379569,-0.966544720743974,0.4672533508262696,-0.1594519397367427,0.1786797929601642,0.1660957730248664,0.5871263361299466,-0.3683111707328262,0.2272392975414016,0.2182127942428369,1.3487793356892963,-0.1699027483343732,-0.2395330401217405,-0.4668423317571046,-0.877946174006088,0.1104426438933824,-0.5044639484791273,8
-4.346563911671376,2.0139995230174472,-0.8896674271098358,0.202157777022846,2.2834983371452577,-0.1978590715981872,2.722640049926059,0.0154781973494822,0.3968414485362281,1.101521806264664,0.437666011184417,-1.024230755960833,-0.5014119830424304,-0.3039970794135188,0.8977923960057799,-0.1276497199051642,0.8518056610862984,0.208209727349607,1.0456357620806798,0.1793514495329947,-0.1935704541316228,-0.1128782546658004,-0.049134138094377,-0.5556967868486299,0.3283416162605702,-1.0986283673953383,-1.0045725890984398,-0.5996996327520399,0.0318949037010432,8
1.3233321627760968,-3.170492623427849,-1.8677955749977533,0.6842992289189996,0.4131699413992725,-1.1314127396594145,1.2378620159210951,-0.3322980082829695,-0.1187740982927944,0.4481755542595035,0.2125159400413974,-0.9374594005452512,-1.168487163864627,0.4851583153785861,0.401216556618836,0.4825243994335729,0.0595421280964554,1.3495367056987468,0.7789687819503516,-0.704269220220862,-1.060065511201453,-0.5504901899314296,-0.1837434493936782,0.2216827230377957,0.7304677917753666,0.1587940304513544,-0.1515511149332916,0.0628263875882369,-0.4072602179900688,8
1.428545103332571,-3.0849913061608225,-0.5221700110444919,-0.0400759635577358,1.0684304652661971,-0.2551854059654038,1.6427813730228418,-0.3653075147317965,0.2536557164684836,-0.1482747489922863,-0.1394148918093297,-0.8949166548604017,-1.5407364222882651,1.482280612495321,0.279281329840539,-0.0324163146479656,0.6245133464469612,1.6185697984849874,0.6963859952584581,0.0867794361151701,-0.6406766484278822,0.065599521689703,-0.1305918391026431,0.2358766362304293,0.3913659870747678,0.0326309100525908,-0.0111389256532278,-0.3073451308276734,0.4330980357452102,8
1.5003410397044796,-2.1143800420533,-0.2107419514847671,-0.1666668898873058,0.2764453977345075,-1.0999618154134658,2.1371174995377027,0.2609895935630067,-0.1910678367180244,0.6335210104406991,-0.2204658580528104,-0.2177991126524917,-0.7341502070249294,1.6388797408894338,0.5441515114059052,-0.3934036926382052,0.6632653092371372,-0.0689964334100196,1.6408497240714095,0.0855548923316941,0.0446683898251361,-0.6897760927158691,-1.2834630918725285,0.6881964959930762,-0.0565647669092885,-0.852023514418703,-0.3056113941515777,-1.629472565401739,0.5637047989281515,8
4.163998790880106,2.092668657619649,-2.604024713824616,-0.5227842108841583,-0.7513607474869635,-1.142699290602487,0.8162484961424361,-0.6254207610599227,0.0871245564855439,-0.7492511330346104,1.3210745833878228,-0.3688320226973704,-0.4767792903583437,-0.6037046404111397,-0.178566014312491,0.1410872077085049,1.284883328741152,-0.5127880334393928,0.8334011879255665,-0.0823927513553236,0.8839525468836715,0.0015299082169427,-0.2777024609370881,-1.5631365330786229,-0.3022079419763306,-0.8678156450561398,0.712173345572701,1.690850190284499,-0.4905824236537433,8
7.128546684739242,8.757678559333256,-6.102240365075436,0.1627982747481547,2.739928840207367,0.227445654098348,2.7514329972358493,-0.113558718275158,-1.6957948126254767,-2.0680692402738656,0.6766970537398554,1.8005120710790297,-0.8572560029012775,-0.3615053715004218,-1.351465476616438,-0.8251923510791742,0.0125371349931555,0.8805566504509272,-1.5274371705334635,-1.7325036145825197,0.3464645354787363,-0.5210632670070862,-0.6078051056406711,0.5835029715917807,-0.8128241875035233,0.2740590634031519,-1.1595678056015364,0.3813697125613255,-0.57879701885016,8
9.027891344768529,6.121142738887381,-2.279106131789995,-0.1731725705942461,-0.7300949021149341,0.6758532848431994,-2.1544877231594266,-0.3829673480243461,-1.5315857182178525,0.6156683935603111,-0.6998052004914452,-0.613378512789651,0.3879482757365811,-0.8174810981839228,-0.3508956474763093,-2.474325926573253,-0.4849047104778788,0.8604965603402037,-0.7651896234439308,-0.4095949318599742,-0.0265232147612709,-0.7913055197423923,-0.253144176197343,0.31082610660939,-0.9837576423729116,-0.9703429022287126,0.6352984378828407,-0.5635406786172259,0.4342150658425677,8
7.229419189746617,4.024009909007595,-4.496309771231155,0.4442717230237609,2.666452196964103,-0.6895545801704754,-1.8288728884807928,0.4338961811547234,-0.6428369927272096,-0.0342429616801329,-1.155665696916401,-1.081887954561739,-1.6366412373340844,0.3884820290793409,-1.342307339654634,-2.7284047725438327,-0.2839230191090702,0.2857058250808897,-0.2047218050716108,-0.2746596710371057,0.0232231710147699,-1.6735767491366071,-0.2063445860975303,-0.1342879893945665,-0.4705266224104316,-1.0107449010592038,0.7196629267730441,-0.8005358807354854,0.0157394182719109,8
1.3803174320488654,-3.184921836443559,-0.250763594964135,-0.58269539001833,0.3982997492873805,1.0540542750131232,1.1005996887267562,-1.3989833714493671,1.3852348816663889,-2.087527279503886,0.8923970227200758,0.2315619721305288,0.1295922594596185,-0.258097883839716,-1.3264944247599322,0.6265845912763498,0.1533286914411182,0.1712687152932922,0.2555176723464397,-1.7532996460236872,0.4732634544914558,-0.0535481872321879,-1.333918995925135,0.1906396977231445,-1.0235678750613617,0.280451184085822,0.631359463320243,-0.0289134180727882,1.23172989747674,8
1.7249253082563354,-2.85568735960324,1.72368713065115,-0.2658076075153362,1.0563483676608938,0.7292079685024343,1.1059154772589144,-0.7091691719102986,-0.5339076000309516,0.4416457183572772,-0.0493892011107869,-0.3982125399397392,2.014305958881029,-0.5117927132533989,-1.1711073311945963,-0.7124151201980433,0.9908409434582864,0.7641340659935972,0.4584426862596878,0.3583882594711091,-1.0925944442835196,0.242705758974021,0.5280533276809399,0.9710970185364002,-1.1273916457208966,1.0780439597916731,0.1102510234056089,0.1201984094123299,-0.9462819789178396,8
0.5952455493162966,-2.992704807800401,-0.3053196021518159,-0.0998821816796776,0.8780262571679102,1.3623803046993377,0.3380178038066777,-0.5516787524559632,1.4651937966760245,0.3160546574099711,-0.1807594884958102,-0.6831307695606383,1.764667680936686,-0.907886389166234,-1.282988388102287,-0.7804540706846724,1.0992184356881216,-0.4781678675593159,0.1982072369714565,0.0851150074770277,-0.4091091711217617,-0.5099530608556821,0.3790172704115117,0.5614341000270815,-1.0955477237539613,0.4989806094993832,0.0970724446781132,-0.4358839112157198,0.6198078710601884,8
-2.0515835949132355,-1.526653115720568,0.8123744942233697,-0.3739084416239706,-0.8489459767004676,0.958038650724331,1.0406245522355289,-0.5352511540952086,-0.3854491045242155,-0.0957889275986327,-0.2432125955524366,0.8747329578965148,1.078149994998018,0.020995440174297,-0.8111614679921136,-0.5220818623136197,0.7007066654282181,0.4549585096485426,-0.3083176155644843,-0.1754723566659205,-0.6674418910683495,0.5247752339412527,-1.1287616814523918,0.3613627647017388,-0.7616156631375838,0.0823106453887467,0.2208036164701723,0.1280705571059861,0.3013343833706199,8
2.035769551218517,2.914154927677083,-4.494952245969743,0.0623809574235783,-1.598467595109632,-0.8461234396842543,-1.7237952750423404,-0.6289620793749762,-0.9026553894739172,-0.4322843835987254,1.5403889234475876,-0.6420619723032418,-0.8111130679220842,-0.9203062600328809,-0.6831375730074363,-0.3716903471054892,-0.231802882482987,-0.7360342411977382,0.7117167106887435,0.5988968140510239,-0.0799251744513551,-0.4257717259281388,-0.8125108106239987,-0.7674371047203755,-0.7984027748105151,-0.3392112435538763,0.1189334089042196,-0.0024271657492819,0.1066607374159691,8
7.23750741277101,4.974784539847237,-3.6526985568361146,-0.4612400789929079,-0.8095561570326205,1.023464220958363,-0.8163858464224399,-0.9188424861046526,-1.0800479923587911,-0.2098737411391662,1.5818809605621298,-0.6694185241044561,-1.5928408247020742,-1.1042834317316133,-0.2073046708724637,0.0510282995341182,0.6355189403965986,0.0419399167934275,-0.2573748042497852,0.1389726002523668,0.1670628489848075,-0.5680412731649324,-0.3679581289711611,-0.3337924211844049,-0.7580424021373883,0.4768748700712364,-0.3154711359471802,-0.0296964079816029,-0.5302582856071946,8
4.313793747933972,4.8229591181079465,-3.1688041161397424,-0.3734186138310026,-1.5493539221979022,0.1174142708469771,-0.7210607408413896,-0.5265841427535505,0.020111600551611,-0.5905596405351061,1.4120572568519234,-0.4538546107569802,-0.4267894881318176,-1.013031184413805,-0.3052518642975675,-0.5670360576304215,-0.0411271063171731,-0.2915289545085774,-0.1854681905116146,0.3114706224967568,0.3191751938394351,-0.546189009801731,-1.0817137080087098,-0.6094529867235102,-0.9753106135299606,0.2856652264822237,-0.3145452800899169,0.1474930678559837,0.5901108406789902,8
-1.08541106916955,-0.7093119665946401,-0.4897754461088421,2.6578241285635515,0.1574811512831775,-0.0472555496544137,-2.870825342517197,-0.4655780298475621,-2.3365404588162577,0.6385945656269654,-0.895340153692673,-0.8125520229716449,0.429978486673925,-0.0862474721318238,-0.913585019161441,0.3785045670164347,-0.2739183385673618,-0.9032788417098176,-0.8090611117160308,0.5082363374942415,-0.3513166044937342,-0.8665533064830389,-1.1286321439881553,-0.431215297373388,-0.3180911581607384,1.4977192377153277,0.670951681543729,-1.1201466954551933,-1.2516695607309418,8
-1.5982587933673833,0.8442744514216561,-0.3092649489125909,0.029819396090718,-0.7804219454101013,-0.942052854550722,-2.626012999831448,0.225397706776262,-0.1020461570513085,0.5347246360315648,0.2482568979212865,-2.000889112181594,-0.075283410666115,-0.0664958585418134,-0.0697988441376154,0.4951961470763699,-0.1019865695827744,-0.5335537403173282,-0.7218477012103223,0.762142842097058,-0.5140648772779268,-0.2630227317205428,-0.5066017157723262,-0.9090425144740776,-0.9806435243303492,0.5085215874223411,0.3009160111449778,-0.6806062084849881,-0.6671986065675424,8
-5.5020178749792015,2.347672400711244,-1.2760678117174868,-0.6810499541212437,3.005057851758305,0.1856417260908645,2.332079843579967,-0.6862757894137356,2.1111547188966227,1.158168255218731,0.7070484731630851,-0.3021440499733254,0.291123298560802,0.3487815353709584,-0.5253349264424627,1.059958118863926,0.3010500044349493,-0.7125169211682666,0.1947144407115317,1.7204218143664756,0.4589434680060936,-1.3085702375426551,-1.0940909953153088,1.2831593156744026,-0.1761237870957857,0.6503262841801786,0.1029307574389234,1.1358106510241537,1.2916809441527752,8
-6.642424698974672,3.857835141709552,-2.071255816457952,-0.5813145421119795,3.8072132045740057,-0.9028448616796364,3.627575275085909,0.6859399563955542,0.9474800690075936,0.8916769821167381,0.7751128589963922,0.7602619945717797,0.5928280742806223,0.8932659424360858,-0.9507704620049248,1.1145260657641,-0.9634151699831554,-1.4692943980768574,-0.0042267020616037,2.0353455148208046,-0.6503374198359892,-1.1066003572758836,-0.8511418594423619,0.5271108965971453,-1.2172917980520086,0.3303347853573353,-0.0515371988406171,0.5685116861209182,0.2282017716739104,8
-2.835167915097792,-0.3658300436777419,0.4790719406960491,-0.909426428876797,0.976398280846434,1.6129602754291117,0.943486165683108,-0.4994455146589166,1.2864040119399458,0.9765505502384098,0.6324327449771789,0.1670263963412157,1.1604214734183094,-1.166886252990203,-0.4835865077178967,0.0571669303434962,0.0930140594994685,-1.1089550952529073,-1.0165667556958642,1.8215512252595245,0.1747614139660918,-1.2153629356894626,-0.2453034308453239,1.6291676071262018,-0.1648355423178556,0.1018259277928854,0.5507347284092368,0.4932127543291938,0.3916639843414565,8
3.4205706859995737,-3.4757005294621752,0.4132847666983764,-0.3914399083812651,-0.8776775136394228,0.0046626521739622,-0.144564833991608,0.28973767269471,-0.1780830613144317,0.0374079523792935,0.9201907456576413,0.1751282127175549,-0.8378500311133875,0.3113935228347148,1.6139152254461742,-0.1389603295336032,-0.6190803409375908,-0.8508876858221661,0.4691778186183786,0.4768061045343361,0.1726025260312331,-0.4826491638412729,-1.1108076355261385,0.3958204564998221,-0.8542869818860304,0.3420935013431884,-0.555941486528749,0.0947995169690667,-0.2088201165277408,8
5.533126312291207,-3.132383181012585,-0.6424826340253844,-0.2276698691605745,-0.4545149028656183,-0.3882021282706361,-0.6318109166873667,0.3459653589529581,-1.1003486867787946,0.2770810474821617,1.2869900254055302,0.4848339755570691,-0.4578877649829571,0.3632560471459662,2.0583432941739512,-0.1011564997741941,-0.5253474856689221,-1.132869554484263,0.7608308499151398,1.6714813323135873,-0.6012228012969195,-0.2740355139925465,-0.9378634922161369,0.699200502994105,-0.572418443538307,0.6492913339583903,-0.5090531079790657,-0.1843692904848022,-0.2811816697773361,8
6.770846928219679,-4.170079643741745,-0.9247297305846665,-0.2415405082024855,-0.6746606092941103,-0.3476653920478327,-0.329913839854672,0.5878391000366265,-0.2635519481222111,-0.2512176270445737,1.035528981215799,-0.3812638644732273,0.0243105532659965,0.2235748145165808,1.3615296887759856,-1.4926308865172748,-0.4988586884729395,-0.4987117999532658,0.1298351312069876,1.429431526199042,-0.8165563691390189,0.0476416470103675,-0.378480781980262,0.0986883417982801,-0.5223150741369943,-0.0140680463369407,-0.2846135176216156,-0.1211551556091298,0.472447385028692,8
-6.452465799746626,2.5595163326734114,-0.2176938793875937,0.2332885592537522,1.8403248306789215,0.5504919540049675,0.6905337737186126,-0.0963862638861422,0.7945296799897309,1.079323888651844,-1.376432387247296,-1.222729767854398,-0.8217150168694445,1.0025593690157808,0.2618171545761782,-1.4311971902339464,-0.7579134636758953,1.3660703464654944,1.1305256547041589,-0.8458672511060922,-1.2991236016119083,0.4903354032108561,0.4995991848431191,-0.0463883134129275,-0.5153239322998326,0.541355379483787,0.3764191323127412,-0.6011803053713357,-0.5528636151027293,8
-2.9793677040571467,1.8740550748968128,-2.4881908180211774,-0.0649026817592073,3.0218977696190947,0.0039775998840976,0.4728662883772693,0.0130798131646539,0.5444549512331616,0.2383609694388361,-0.07953050849536,-1.2807596265729957,-0.7905121256123698,1.347823267787819,0.049465665985668,-0.0360455472515575,-1.261534310749056,0.371264493093438,1.838144492004291,-0.2709429977593576,-0.3573336165779125,-0.7495931746677642,0.7166008686595994,0.8000088284730839,-1.3624415347170675,0.3385953281597111,0.1911134346685193,-0.902017902832404,0.4388915842972861,8
-3.387180354329367,0.327917388937449,-0.9858450550994626,0.5067449850754514,0.3254140386085081,-0.8777650169532306,-0.14969736421385,0.0697604830970612,-2.091098148734816,1.576137194490544,-0.3901974561438891,-0.7793098348998296,-2.01046152042865,1.0463015651666432,1.0351672047046447,-0.4255953680095599,-0.1806878977081658,1.755173520699133,0.9854340847433436,-0.0358310098995574,-0.9526516840339636,-0.7792609722029938,-0.0292896665124775,0.6897086795314298,0.0801831298770358,-0.193351508671537,0.3091409599123965,-0.111878782423166,-0.6012083257223495,8
-3.822352907959146,0.3527478278278417,-1.4142126972902378,1.1878293695236553,1.5055838726678057,0.6081035944659217,-1.6471467496649872,0.877591294220804,1.3007340463767685,-0.2659649876078881,-0.3609183691909219,0.7518048770221807,1.8290355841992691,-0.5285928623682696,2.423400112665824,-1.1299420502324593,1.9237601886304705,0.3326156304897474,0.6172303600400177,-0.2861270712311834,-0.3343623822356721,-1.3099894781292,0.8264981518032084,-0.0883813013524213,0.4328741750688887,-0.6754147033678819,-0.1613358448145369,-0.5642099216630183,0.5171323002386136,8
4.058436076325982,-2.9964334716960024,-1.440365039784182,-0.2848450764196222,2.544489427835671,-0.108182172541041,0.4634210156204854,-0.4530239121008971,0.3119718012070336,-1.1568513607991926,1.112124388268396,-1.9419156237140205,-0.909692175874787,1.0926823346562882,0.2558300426022887,-1.2792276611981803,0.638920025062891,1.9887883549196412,0.3415080459615962,2.155761282555095,-1.3877226375321627,0.0238626716001648,0.5787340057956039,0.0480562899917524,0.3856376112827347,0.2606636909541038,-0.2990970346299421,-0.5155608904766936,0.9316180260589952,8
3.850876114906748,-2.5884462281632694,-0.605070470670405,0.3601160588848168,1.264603877444906,-0.1365328428207652,-1.8610824105106023,0.4279832653549076,2.34253199235653,-3.088530721348783,0.9614380774285004,0.3635470420969721,0.6506516215565283,0.8020286046213534,2.6189442995989225,0.1859643702927411,1.6841781825423434,0.7107103343797334,0.9837229487866416,-0.058919731035975,-0.3536471231785854,-1.3582361286363804,0.2992022462315946,-0.0712988557734357,-0.6332245592336158,-0.2392905849278093,0.0245242489907078,-0.3941349818050857,0.2535923647885539,8
-1.3514203889290706,-1.2638011266465166,-1.7980594868264623,-0.0726275094598887,0.3187764347676314,0.8321427359758296,-0.4293910467750196,0.0090457818731303,2.171238222225824,-1.7363732211283616,0.9487231983323856,0.4187879484570606,-0.5304380193486596,0.1523998236787503,1.163458341342228,-0.2754502273793681,-0.0374612503759818,-0.4016775334515448,-0.1261494736822515,0.3807618282279995,-0.129173386256779,-0.7058063077783666,-0.7244328014873639,-0.5070498241686955,0.9925962177824144,-0.050917853931777,-0.2315102696367883,-0.3166532857900964,0.5257970085914673,8
-6.121159066765473,-0.0027037291094783,-0.2143691876564159,0.1339498449270657,-0.2914660626914814,1.523229071466888,0.5785689055413347,-0.3219655443597176,1.1247922278104812,1.0799610246204647,-0.315636715094206,-0.2363080610174538,0.5947436369881576,-0.8639622188606474,0.7879931321983855,-0.5032103347678086,-0.0774237556271116,0.5336633762994245,-0.4356973850391305,-0.0364544552546269,0.3828701385871495,-0.1532691894578222,0.0827838855306654,-1.2186471686963125,-0.4076078393867337,-0.2313859910278134,0.5073617399978592,-0.4688254000797656,0.2193177549995929,8
-3.661933933450885,1.4176410241748951,-0.4280122175097819,0.6064544115527696,-0.0943342072706778,1.1768916659611774,0.2123916041855193,-0.0141776251831301,-0.8053881793042288,-1.12313437124618,0.2950622335430897,-0.8125117611460042,-1.1575945617821213,-0.1211639963454503,0.3339193710897365,0.1760325696052675,-1.57692585717238,0.5850008967921451,0.2119329369781128,-0.7172096353522459,-1.208889002279553,-0.095551488850708,1.030203244591535,-1.0156221279164386,-0.8557075103780416,-0.8337725250533564,0.359062444975625,-0.8064581760697116,-0.8409429647211413,8
3.6231265470626712,1.6609080488224266,5.041572829981553,25.65051516438399,-2.95148637502768,3.0428849319891818,2.8620032960352235,-1.8900157637492048,-2.924421676661333,1.361345307561998,-1.0394351807314153,-1.758762571380162,-2.669155074006712,-0.5285785118595028,0.2712041234553548,0.266881787814497,-2.182775132091769,-2.8774188426920486,-1.6171991148597702,1.050242362588079,-1.182260243720028,-2.226692516365429,-0.2761792958792992,0.95132668261342,1.150840013333038,-0.0525418246011807,-0.6728983916523001,-0.7595882643735753,0.2548286996438376,8
-3.167853427717932,-1.9610339105054784,-1.2663045839503693,0.1066917647813291,1.400446510330902,1.6700780060375562,-0.8964591646507355,-0.7243171283226916,0.8840024594591649,-0.6805825629510956,-0.0438435606075664,-0.9949432435637082,-2.4865310199993416,0.4837348826465625,0.5046235277284317,0.0036715892284342,0.1597339768851126,1.1420325854449034,0.1928440173512653,-0.8146536609659432,0.2896797298518913,0.2728447856791425,1.1118145879904358,-0.6629187975588675,-0.6478285784814453,0.4429987759842312,-0.1369096345998832,0.9716042182743914,0.3476842202035005,8
-6.636066882978518,0.8478403135560794,-0.5073480221194459,-0.037623528211457,-2.210341107759038,0.2109012245924896,-0.0569553245689681,-0.9093893916853892,-1.5935071937857943,0.610637965735327,1.2269769474608914,0.9583819092444892,-0.3293515878088486,1.0061375321887305,-1.0913122115211655,0.2217870216442092,0.6851271952078982,-0.461329912813747,0.6542115457798797,0.399067495931684,0.9671748026069316,-1.154549129130787,0.0384837215546698,1.672681260752933,-0.9196375924052244,-1.1640990935127455,-0.067985653515209,0.5515963084366389,0.6695457983443933,8
-3.759480850628119,0.674796959923693,-0.3870108171979255,-0.3216424032065937,-1.437310218211463,0.0025150179722389,-0.1344181330987611,-0.7983318332590168,-0.9416715059838392,-0.119365377475895,0.955639449886158,1.7419403239817657,0.744100931379709,1.0762176654715,-0.8630191385584366,-0.1878916537365726,0.4817164913568762,-0.9583637282758416,1.1764203505660606,0.6974090828825616,0.7622267587918905,0.0745429311210283,-0.3475505913000186,1.2880114526970012,-0.2723016601689756,-0.2864974685052187,0.2636432019711207,0.9260433895147748,-0.0161334376255761,8
-1.7297281426129472,-0.990087653732367,0.0647085339333447,0.3235591785437727,-0.09620859920248,-0.1075774767029734,-0.5346497203763226,-0.0949826531820797,-2.0351378004649545,-1.4029243030801837,1.2041473896690562,2.3795849552911297,0.7371269537547118,0.0182277021108265,-0.3359939352190987,-0.5486511466553777,1.0923552280927475,-0.1855844933880761,0.6535893154139308,0.3782738225367703,-0.8899187698406539,-0.1455304726749683,1.0009947857739945,0.6128005716406923,1.0265434336506798,0.6193311487086898,1.071791556143377,0.5025135425792072,-0.274964226452761,8
-2.830742725461948,-0.6429858462702112,-0.0553622431647382,0.0546757967903596,-0.0450227847024351,-0.255189670927593,1.2343108618666294,-0.3335073142633969,-1.7932580794537694,-0.9754519077273336,1.6877057668205089,1.853727599534936,1.0832424937482528,-0.6518527872387252,-1.1290774647117698,-0.1353806130029732,0.5981740862791444,-1.0913750136069107,1.054982254842198,0.4279874728478324,0.3079258749647576,0.3084934616095409,0.849219274980855,0.7681265483832633,-0.4213219060013654,0.4262260194458347,0.424273323767994,-0.1405200709806499,-0.5061902892243574,8
-2.9611729052597875,0.1319021894797103,0.0109080292173948,0.3701981866547077,0.6354865769858282,1.6781266063666396,-3.77815769829748,-0.2816254900329425,1.5936698889440803,-2.1107866966772173,0.2377208783645234,0.6526348095872161,0.6406209081434675,0.1181727019719884,0.3394655236527098,0.0495490782457665,1.6859600179553125,-0.1132195056764376,1.291611178276405,-0.4371973333118918,0.2190316272371634,-1.7214975602469027,1.2470255061387323,1.3028166468880762,-0.8284694800335515,1.6172518721755502,1.1777645689987697,0.3893611022144652,1.4140061331656535,8
0.9529690662163912,-2.648689313476212,-0.0384964323680892,-0.5552533675956975,0.8144257038499817,1.9892675961997608,-1.630910762659863,-0.2892992800802768,-0.4289014063690994,-1.5345920769573222,1.2609750341453274,1.1793330010813834,-0.1887674616531544,-0.0023005368581243,-0.1779512065293021,0.1268521494122208,0.8061745531594391,-0.8370924955315536,0.1999672513280291,1.4004419299107278,-0.9155496667096404,0.1799535531090397,0.0855826993253538,0.7416592031436656,0.455851549494483,0.9957446836681076,0.5040440891310125,-0.1707163411247751,0.9165029934521288,8
1.9713800950285216,-2.394417005126601,3.1802395391306755,-0.6914202464841378,0.4775350468024334,2.143936279749844,-1.2621626427883532,-0.02114584748628,-0.1728467888181732,-1.7934635696101544,0.5497767996854815,1.433747811350112,0.2927599264395362,-0.4375972908933069,0.861581373799764,-0.1448636749092716,1.7051589017358766,-0.6273876125474229,0.4255970695695646,0.2603642402151171,-0.7398643061784819,-0.2041432390046941,-0.4666813477999645,0.6723016324353963,0.7472925737067921,0.9569589279507844,0.5134761856156639,-0.2273686709487472,0.6388558972294937,8
2.227918135014336,-4.075333442146039,0.4110220965018321,0.0775980032912594,0.4504752706662971,1.569904340197784,-1.193591210540204,-0.2355947608594542,1.1172109125752303,-0.9611460521064236,-0.95746630723257,0.2780427852262659,0.2037870649308538,0.8080898099423267,-1.19099553473112,-1.276376480455417,1.185637644505255,-0.1193268312335183,-0.2446263387250987,-0.0453099780762793,-0.7666883122290553,-0.3514724821032595,-0.3861320934065887,-0.0626471392462376,-0.5311368344202956,0.5961124966789143,0.0738778763097435,0.0621887912226661,-1.22154741484488,8
-11.094278627535443,3.293659202707889,-0.9498999330240464,-0.1020049456685893,-0.799811058144547,1.506712214273664,1.508601169704405,0.5268730440484428,2.412442707386192,1.6585522568880051,-0.2142158532738771,-0.1206088067217246,0.0907151126605406,-0.3588297541871157,1.015221197625746,0.1925728049846978,-0.6706077549517399,-0.1092788856476794,-0.2506679577127624,0.9072773831164522,1.0088220253626374,0.4131932654022333,-0.7358691356809822,0.1572495982216509,-0.1367764507189786,-0.1768043233000713,-0.663074136550981,0.1243003810502079,-0.1071260501512702,8
-5.5362235908864745,0.9523682835094291,-0.3093541156619214,-0.0095227319840419,1.9180217421820744,0.7266667063179019,2.5483531367423957,0.0544650190048628,1.15094774775495,0.6413074507465358,-0.4266773791195192,0.1518554522618218,-0.1986293052182799,-0.5237070574265198,0.5326101513384114,-1.3175130966510673,-0.6943568275357161,-1.0474433178774842,0.2575090670685198,-1.1562642322331704,-0.9318575132717184,0.7942094821120452,1.223747090964664,-0.7695033186592659,-0.3631802601597849,0.4354952517823269,0.1994799611504463,0.3225147464245149,-0.8312645192960025,8
-4.519520886381724,-1.2428399939201464,-0.9518513429927564,0.1117837498489962,-1.080000071764939,2.220993911134685,-0.2733787854454931,-0.909441027997738,1.2847400380697411,-0.4047764161010821,-0.0372495968859141,0.3377259117653481,-0.8639017890227799,0.9516385377543344,-0.0620407838154099,-1.5886812464516622,-0.3651161139374932,0.1084085091037485,-0.873520174928806,0.0184589395266201,-0.6358123201851495,-0.0315784369047959,1.3222680805882223,-0.2095011536553228,0.4781280062706067,0.2212988980071843,0.4290369213939928,0.0225002550959157,-0.1167547699436425,8
-2.1511344526382614,-1.277002086512932,-0.5596659545496516,-0.0048761356250256,-0.0122282977026703,1.389802882429081,1.3224354983949516,-0.5650805214157162,2.416061863724667,0.6801627120417358,-0.5140666135247924,-0.7936876301930553,1.231816721531437,-0.4939495481797614,0.6480033972608892,-1.355168085749555,0.1029703715883649,0.5941849881880277,-0.677420627796249,0.1525382867804571,-0.6179013486400803,0.2846389091693849,0.3100220154572841,-0.3389620570377279,0.2523625417895696,-0.3852370151162282,0.6272591270879946,0.0413986359784787,-0.4422948165623736,8
-5.371112610194638,-0.3713187930925645,-0.8529786721097792,0.3182661386894943,0.0318494287471424,-0.0053986079863212,1.1699173185620777,0.0808549582422509,0.0083090765143537,1.7769714338162412,-0.8535868704763436,0.3337101978443163,0.8570036982055288,-1.1787189975710175,-0.52019192183891,0.1997244044194694,0.6951998096850147,0.5970015639866166,-0.1476560676240003,-0.3381852240428493,-0.4801919346273702,-0.2353837526786278,-0.4536942303883434,-0.1091900171568295,-0.0354117477329861,0.0777452210570355,1.4255989903066515,0.3096757664011538,0.6585099928035045,8
-4.474164462417911,-1.0571871141674332,-0.1283966629660287,-0.0005785304059069,-0.9285994101398838,0.7430638523899523,-0.1913900179194368,0.2576441181646691,-0.218590236088045,1.3159768246224337,-0.6930936492417642,0.9424886298507038,-0.1841788805902512,-0.808259923043775,-0.2198654525613848,0.5375553079811075,0.2373586905422259,-0.0486908502175188,-1.1141457171518372,0.6429461290084149,-0.1858412123232606,-0.551643140581378,0.1901510840607247,-0.0696459753066555,-0.7517877825661634,0.0001540207967461,1.0773794592250352,0.1778852655091714,0.3096686198725758,8
-5.058197906171232,0.8437893361367844,0.469881822438035,0.6906363256958976,-1.9206699417997253,1.143909558440059,0.2274333672215574,-0.9259414321718747,0.1082703090384473,0.0560101622835558,-0.323216740105513,0.2151795164907853,-0.9788406203212734,0.0176357211656804,-0.5476974534452216,0.8026227815360717,0.1499278863371743,0.6338391418710785,-0.7556593443819632,-0.0629858509729236,-0.9416387643216256,-0.7966480791307862,0.0724892434644248,0.1082030819282679,-0.2929103814679803,-0.0759707476713347,1.687847169470108,-0.5492585197807267,0.0568113499104751,8
-4.2621000842365175,0.3985866584039436,0.1343404777030698,0.5302408190287887,0.414377295044853,-0.3854004971577325,1.408068391702926,-0.1160777267328143,-0.089718712849172,1.4841984601706928,-0.5424451861655932,-0.5481270539416815,-0.5028005867387443,-0.9238612757016604,-0.0683698168252388,0.9458656118733058,0.3875323996071322,0.7072915615662299,0.01816629782272,-0.4419657571172425,-0.9579453106964304,-0.96463603915563,-0.4665792815013296,0.111670992721604,0.2091594094973776,-0.207739539523034,1.5353991232776143,0.5419313194633162,0.158075160313024,8
-2.220780435796791,-1.9213514369808316,-0.0237835332914461,-0.278326494083697,0.4837032607307687,2.0206562574031133,-0.8370704394555963,-0.6316053711502093,0.6325006694889286,-1.2249156851656524,0.4907004542615503,0.2867339058565523,-1.0802241486336477,-0.1449044710478787,-0.999196509562503,-0.253946926490224,0.5374165902721096,-0.6404495530576815,-0.6421274947654727,0.1090954591435916,0.3434940865432581,-0.3949081714233071,-0.8613610073028686,-0.2839449276489713,-0.1494526996028829,-0.2982530235744369,-0.2964799340496841,0.2019654416736437,0.3766055528186517,8
-1.886180993645752,-1.960460689951219,-0.4102170487974733,-0.4302731929402745,0.0402367513162833,1.2438396547315869,-1.7530750673601023,-0.4030990265422086,-1.0734861306631418,-0.515205103528966,0.108019489925589,0.4654371521094659,-0.8904503098885653,-0.4812971732504795,-1.0997933046185604,-0.8702999796102447,0.0797588172289709,-0.5865351638421719,0.492421795656951,-0.1024311567889628,0.7261155970509935,0.4880509830968676,-1.5778810420040543,-0.5261961750815063,-0.5458689532691218,0.0078947681239422,0.2795831135093369,0.2298362610262197,1.311621358500495,8
-1.5828763861086452,-1.4287596074629354,-0.4945185644268708,-0.171042236598619,-0.021285541650821,1.5395457947691875,-1.3572792246085648,0.3461726614471734,-1.4691496806618607,-0.6196428816705973,0.0938135517422556,0.7319296579687203,-0.2523976693027235,-0.0994227256790886,-1.247680542578259,-0.9993970643382668,0.3056158462387719,-0.9387647716912912,0.8193046764572557,-0.0557594570735257,0.2324369143176635,0.0954009888024637,-1.4864236604251737,-0.1389845395744211,0.203532642913718,0.3664705339416228,-0.1695595682079536,0.3049985251609095,0.2146309212946135,8
-0.2395325237518226,-2.486394753036856,0.3809402597853076,0.3110311551920949,-0.7685950434946431,0.759083066184019,1.439567168752607,-0.4496110701647225,-0.6094684186490859,-0.1247700372431706,0.6549403512647978,0.6591793606824898,0.4375974392467939,0.2107180817382344,1.0948355983508808,-0.2746294459152842,-0.0682468823394348,0.8517397965974465,-0.8194185685247204,0.0641016739218688,-0.4477549596774713,-0.3472333051150311,-0.3421714588017362,0.4498593918898319,-0.5316192596504793,-0.1532053942536641,-0.5279228659710736,0.3181516532040246,-0.7312857258920806,8
0.9179407293432316,-2.928564631878266,0.9097776415741884,-0.3248395101573069,-0.2630969146564432,1.0790001348033962,1.862856744301856,-0.0253713730896312,0.0463750273821299,0.0615511249307307,0.3203822942644225,0.790242756319468,0.8544138307014361,0.2143723781027802,0.6821118710977387,-0.628211487041711,-0.0680023063362,-0.2442038539971101,-0.6125193511691717,0.1369214155499238,0.4248197062022557,-0.7508177264999218,-0.483229056806346,0.391382563068805,-0.0936166693835346,0.1973802047154721,-0.890430946041382,0.2565999902524532,-1.1517562764223466,8
7.8542540259280385,4.898671347505793,-7.96284866606983,-4.0835988416413525,-3.4852530102269443,15.656125808255704,4.551502808726274,18.510580208848857,-5.748393589386599,-3.909315551446288,-0.3689896782578431,-5.268095490708339,2.771997580404016,2.5607727354214087,-1.2499035016758475,4.411327563717231,-2.830378934117681,1.4911302651330112,0.897077501834615,1.0070580293585438,-0.4620204108004078,0.3207746136710523,0.6369953308329577,-0.0806460554109566,1.204784696950445,-1.7621581256139476,0.2191478166171275,1.356677838978891,0.751096676291685,8
1.5243106717915842,-2.967510360970399,-2.333162320357658,-0.0763332013337789,-1.7026685716304018,-0.4581581789242429,0.4233154062314945,0.2209585478924282,-0.3181269569285053,0.056932356607926,1.1247304847915018,0.5036411338830717,-0.9480098134526804,0.6108159279326851,1.345376980481959,-0.5412814908558063,-0.1907558196913903,-0.2583515197413351,-0.4829344483588682,1.7385237944504544,-0.8989025698101374,0.1503003342856761,-0.0576386321799125,0.5023178235103629,0.1116522566449203,-0.4815162497456422,-0.0123077764840517,-0.1273189197841491,0.1934028667045607,8
4.500762960055981,-2.82282440901209,-1.1142248493599602,-0.7373187768723626,-1.2351514270750923,-0.4790043829878683,1.1195633141328116,0.0030792554918661,0.5895391299060456,-0.8104036176258071,1.0123939780217466,0.463265155439132,-0.5780583303605299,0.620590189567506,1.933746493892882,-0.5339763545722237,0.1208854909581669,-0.3292734657020543,-0.013948758105516,0.8310478681707882,-0.8875131676886077,0.7190869412385319,-0.292061669270584,-0.224182534569719,-0.9743796102902024,-0.2198833059502635,0.8012551273130366,-0.4119982682268744,1.5644140480710826,8
-2.9592512612758526,2.9255285850519974,-3.447714513510708,0.663517691668539,0.4098646924139669,-0.5139007501987667,0.3475294859805506,-0.6332893887797978,1.6612912281766603,0.9346252932383092,0.0845249952313064,-2.253001360866562,-0.1601801168282149,-0.1744171757085834,0.0867801438103698,-1.7779759579361851,-0.4214504700165777,0.870583284321784,0.8963502933867245,-0.083229725949562,-0.9867978021265678,-0.5198994415008212,0.557018693105467,-0.4154396821725785,1.1579396933661563,0.3127404988818896,-0.0644611446798557,0.4517673833701732,-0.3033542249871558,8
-2.3806088197484816,-0.923035522427336,-0.3238870700069919,-0.4975671238512167,1.1789538392648822,1.747453431904655,0.4824210383919839,-0.2454614102553957,2.541313715015455,0.0047743038599599,-0.239752459743362,-0.8081006393445648,-0.1877073155264466,-0.8328865028600632,0.8364053201102702,-1.071357391737723,-0.6532488531463654,-0.4527693407760901,-0.1567524462527298,0.0571216839960811,0.6003515142522321,0.6719359757295746,-0.3305015232928521,-0.2794139637267874,-0.3767869827355934,-0.394080026091432,-0.0763147810005828,0.0531848479099428,0.2791949728221402,8
-2.887430409325717,0.826436219387735,-0.239075423568103,-0.4207954665705046,-0.1936472203486429,1.7138652389677278,0.1143642221039056,-0.2640705021482437,2.436761469430777,1.4788416929382882,-0.2182090000884996,-1.2692350233355163,-0.210339087971493,-1.1379935070634293,0.9831966172666136,-1.096863783538338,-0.9477755488254236,-1.326395956907754,0.6774628563700512,-0.4591816746548306,0.919540596603824,0.0096430849260551,-1.1124882269579492,0.0223342959961625,0.0234825375105555,-0.2871422033673805,-0.0963346416801518,-0.1557934832941969,-0.0176710339566425,8
-4.336710839974654,1.250484979843318,-0.964945829049784,0.2953652927328481,1.4640256421505615,-0.4852791305260239,1.7023996758944702,0.4830310586526982,0.0025469224548532,-0.222077796164457,0.3694486968724851,0.9089764502917402,-0.3795047302985449,-0.1599053350142243,0.9314832506921789,-0.3934128162894446,-0.4931446618635375,-0.969917709177818,0.8586668926341835,-0.3626492633178232,-0.6470798296271948,0.2099593677407494,1.0996472232545385,-0.2658018712087724,0.0329701409998333,0.2971455847077105,-0.2752438986582776,0.2402047810470988,-0.7570206253743748,8
-2.3238903998680045,-1.602552594019795,-0.2898399615469958,-0.1980516176791442,0.5953735141327852,1.400786614322355,-0.0504962790228607,-0.9635428583224556,0.5404904656520688,-0.908026172581324,0.072087708173033,-0.0427856238524756,-1.667448044938726,0.9881703117657288,-0.0863267219533257,-0.054705738101629,-0.3710050970817761,0.0617879217011755,1.0737715075801415,-1.3598266880855268,0.3014807559656898,0.0688439037263441,1.0478436466113057,0.1111236431709774,-0.6798549807631865,0.5612675604327942,0.0759582401668882,-0.0089870315938164,-0.7389115527305724,8
-1.2841703714132788,-2.808753719799417,-0.3867225967390545,0.3256108373978265,0.2163110692567984,1.396961345463294,-0.7715282388144761,-0.4312908146224156,-0.1293223075020975,0.3390676883510466,-0.0741047731465847,0.006140922662406,-0.9505932755701298,0.0581580037815039,0.2946812365789527,-0.5490701387600403,-0.6198788800409822,0.4186438357517618,-0.6048996705164479,-0.1637308578219742,0.0563184989069728,-0.6458202785066163,1.5769089614864191,0.4122431500107515,-0.1064412346111571,0.2634252844319994,-0.2176592549438609,0.4476178640956865,-0.8641352386314425,8
-1.3297976943631131,-2.081388592822381,-0.3477373999399394,0.4326148135520098,-0.6546452128340072,0.9736137141967872,-0.2058255436843083,-0.5099277776286493,0.683437719116314,0.0557687677750055,-0.1865629047266396,0.2170739529617553,0.0425641557748601,0.0616219617128972,0.3915628234288864,-0.6804680332933386,-0.8453114494629823,0.5096761970375747,-0.5147247340482332,-0.995519547321237,-0.2928558439315385,-0.6346572232375919,0.2035788439034889,0.2762057610414748,0.0121880618355979,-0.2108584897638856,-0.4201882912628007,-0.1716610045942827,-0.2357543120983898,8
-6.134932382612972,1.8320924525121565,-0.6103019600771092,0.3159128082592426,0.2736868447184932,-0.5859138897251536,0.0527962426129422,0.0913290073344358,-0.2990769346386681,1.2387736014855362,-0.5442027033750039,-0.2445611331930077,0.4185353847584993,-0.3785145300179748,-1.3878079141069544,0.0018263861431993,0.1430582034426367,0.2824861170558856,0.7051628089632302,0.1339187526415171,0.6595044701543422,-0.910897487248786,-0.120657886915363,0.1628866852076487,-0.6205118306705921,0.6532166488420261,-0.3319602923035351,1.1601904442798712,-0.0030833679043378,8
-4.696423525662698,-0.1145151657415372,-0.2828374544659757,0.2652515021091556,0.3043162689664576,0.4913127273775323,-1.6176413072913451,0.2537535890331186,-0.0419413450749644,1.5662934545589455,-1.0052781638417754,-0.1084897612585434,0.2589626344987661,-1.9125616773763248,-0.5778094769885919,0.906836604527357,-0.4185798918284339,-0.7645736943592601,0.1558044865974339,0.6409509931394192,0.8859441054178983,-1.2882318311067515,-0.5297513609403898,-0.0143755733915724,-0.6901979628087872,0.4734624220494802,0.1755969686345908,0.5529232195219743,-0.3711681254545639,8
-3.071380067677824,0.2169893781638349,0.2925191513970112,-0.1047683539168216,-0.6602282858051379,1.5168156106059467,-0.5855333078941014,1.0877323962913512,-0.3207846799928881,0.7117289632923264,-0.739735514123627,-0.4948126442072929,0.4169584516187804,-1.233923180262195,-0.8356834423183707,0.5966483698592331,-0.539599809038718,0.2806875059521515,-0.5869243606848542,0.121906713133485,-0.3038773557184133,-0.66202800015954,-0.3937346203189484,-0.7786041258629177,-0.6377529956434158,-0.0949345186131475,0.232156782082243,0.0958243406826241,0.432915462415619,8
-3.725080208991016,0.3760098721787808,0.5186718486514644,-0.1689422580110484,-0.4947606264014015,0.8833222689405269,-0.596845662098846,-0.2934637310867257,0.3079397889752819,-0.3844854731958528,0.1085454862643534,0.3886062577800301,-0.7028945692818486,-0.0890619670777484,-1.28631617630942,0.596581733048879,-0.1859482944791118,0.1142064505208478,-0.6618268715862826,1.07262330991421,0.8828655401953606,-0.2984384430323228,-0.0658154372532911,0.0907935782734815,-0.4952365667729848,-0.4667590290217382,-0.3178251558946122,0.0067724542362385,-1.3205130467223123,8
-5.911139196885238,-0.6438946089483432,-0.5158135482840064,-0.2377646233027072,-1.4825220721946828,1.630266878555818,1.4695029867181644,-0.8117566825391536,0.6073482865203484,-0.5952863040088786,0.7131886039316907,0.9143038844173402,-0.7619894169220404,1.1726043648766022,0.3825350809147801,-0.0194214230570717,-0.0225820425396397,0.6860133369314504,-0.9088806476174712,0.5377544938990051,0.521692502905067,0.0568584752810323,-0.1135940582538449,-0.102570281161419,-0.4826839689517004,-0.5004176054401216,-0.0209689974464065,-0.3829390563984332,0.5720927242255601,8
-4.918495574616867,-0.9240879444262468,-0.0667797597423614,0.077892780082371,-2.472708719032408,0.220442662973128,0.912425471596646,-0.4385993618969608,-2.049878179940353,0.4711447244971494,0.2749068278939273,1.7545852775422546,0.2115811001466816,1.559479366656304,0.2246702070338319,-1.2325459233769906,0.1850316410466546,0.5291084569530682,0.1421983117162947,-0.1257723484919657,0.2336277292699392,-0.5161590241128964,-0.1801517355925906,-0.3246322699289656,0.0554056842458708,-0.6710560647056169,0.1222791881809055,0.1659445799810843,0.3630047056432283,8
-1.4275928712489856,-2.9893651026049426,0.0014705941598374,-0.227129377001086,-0.8375729652490481,0.501066824541146,1.3696095565194364,-0.2511856780282538,-1.9760015597837612,-0.1976908251726212,0.8547879618534079,1.7001758704507084,0.2418320049729292,0.3719589358254059,0.5539093120927869,-0.2594153252827297,-0.2177418244868738,0.7309374749210756,-0.7586023483758755,0.9906106825193702,0.2066740743810847,0.0647834249461262,-0.2072147243885078,0.2279199965832834,-0.288566761752487,0.0484015035604644,-0.4392910500906282,-0.1389873538095331,0.5274923592863368,8
-0.1885062013798653,-3.053431435055233,-1.6688045566525325,0.2473332320657522,0.3969709582253234,1.1483197870134043,0.6771110721364864,-0.4290115745501185,1.1212088967639395,-1.3207026257029284,0.2649079640137131,1.0162088573952035,-0.2888260642657699,0.9656057028305248,-0.1017708375421085,-1.1257178456674033,0.0193611461887387,-0.1621704672681952,-0.3901603615123227,-0.4079841280162075,0.0083889900429108,-0.2222238712996238,0.1333958359513204,0.0751849684989186,0.2123851452027096,0.1936002284575721,-0.2745924336512624,-0.4352700587892429,-0.4306363883633249,8
-4.109840787518528,-0.3250545103387794,0.4059039542479564,-0.0423765945968649,-0.5844203392326782,-0.3057179150408893,0.57307881161756,0.3625590371571955,-0.8882080967207646,1.8867174420198327,-0.6268124618860755,-0.0757297160355821,1.3544891144685482,-0.453788446193099,1.0795578155838177,0.3360685906359477,0.0999839504233073,-0.4279455534863003,-0.605410958331142,-0.7714512295990325,0.7946288457136953,0.8701170645259672,0.6845073802695296,-0.5973982291793981,0.482453882375051,0.4711094369120815,-0.0113401793673403,0.0383216999723377,0.1018846423004868,8
0.3021152717986045,-0.93210901758276,-0.4071570206517497,0.0855369253986815,-1.2985369806520697,-1.3139407186808574,0.1838401840553829,0.552286486939519,-0.1633144456898113,1.2218437167168823,0.0809428750899601,-0.4092745033532011,0.8766705409401264,-0.0674447828467809,1.282706417092313,0.3056728133060248,0.0869175401370553,-1.3770582707240469,-0.2460026627600558,-0.6226496785257329,0.4255547888048213,0.579553479902881,0.5700595247232381,-0.7908841646659425,0.3983819788168052,0.3328502248625543,-0.57138470969785,-0.0741007846238588,-0.3833210607497292,8
-3.95298218292505,-0.0827186082677627,0.6392947732659439,-0.1110866993921043,-0.8589676756158034,0.2469089509931639,-0.3332853095667292,-0.1465827819404018,-0.2021154460201413,1.388188237917187,-0.1359841005001867,-0.5926418910666847,0.1940649200813591,0.0361844246250441,0.9938637069978532,0.156948082424909,-0.119810422037483,-0.9098559003456812,-0.9993677795643702,-0.7237581526688978,0.7869634800746864,0.3380377151795464,1.89356345595861,-0.0343282680485452,0.3567328915158186,-0.8097655325084185,-0.0771677812030087,-0.1876983119084216,0.1379746106631545,8
-4.034437347402337,1.148769435068874,0.1636063218161959,0.3033470729915908,1.4528455281476629,-0.8360772287946626,0.931926233343296,-1.3075913285326608,-2.5765781102770413,-0.4527594120222375,2.2219359859103016,-1.89672409978645,-1.0526422884169744,1.5045581410578572,0.5215628282197976,0.0588612069379103,-0.5352693929204291,0.8715217938945812,-0.1163577807084789,0.6714871242843916,-0.0908838755660541,-0.6376713488881529,0.0588012133056199,1.6034492785201906,0.7331862971507388,0.3588845505005148,-0.2091887636649941,-0.1518102768173707,1.0426638487125723,8
-3.378312073858841,1.2909063772313008,-1.3926566797465412,2.129666113298925,-0.7793233413959255,-0.8095836919043038,0.3211823196799362,-1.9820659416979065,-2.6709513442128774,-1.6556415982366357,2.017112149760967,-1.1866705798519257,-0.1262492742757055,-0.5756519755300169,0.5158050201436454,0.0123762120289288,-1.1013831368344813,0.1763870819871539,-0.1578421286283836,-1.4191978087872994,0.0350837088617083,-0.0355930880735336,0.0037610785707524,-0.0902236900947568,1.5661131754932114,0.4465798436287238,0.7707856810297855,-0.0969493723695141,0.2225597977046351,8
-1.2379074708400106,-0.6942478942435342,-1.2174584355910276,-0.3494610253070483,0.2537697770688021,0.4366138767383344,-0.4500146332824726,-1.451187716354817,-1.237466364585739,-0.7770810126631693,2.121297124603173,-0.98971100543297,0.1979803471184558,0.9500398516701558,0.1622111181836542,0.2886401217171586,-0.9783618968581654,-0.1691899671024063,-0.5819840803243065,0.9022698737028588,0.6029571693031627,0.5811831708551554,0.5717621660459868,0.3771104509182247,-0.4101608131159153,1.6285803879208156,-0.572522233180099,-0.3264114807674154,0.2375817662237501,8
2.5640502622343213,-0.4348978825644539,-0.215805414347095,-0.5649689263129316,0.4387799624361759,0.7186860951834783,0.1484183331925207,-1.1296556879085455,-0.5680079221677715,-1.5499992829078235,1.9825412907748292,-1.6898508198099509,1.0835591045269712,0.1404800350197448,0.3507239047956938,-0.5055671058773613,-0.6040234744278823,-0.5100062588137452,0.2155521933040654,-0.8717482740378825,1.2325609240636315,0.2748736261941655,0.5615541143077617,0.5557545835492391,0.0076252417281867,0.5771841738989598,0.2457085935367705,0.0877923762008394,-0.343368596384033,8
-6.982009339816902,2.6478108481047578,-1.9016767831331864,0.6422064299562728,1.8767509752208624,-2.2112118868619106,2.1994484413459805,0.9547103748118024,0.4539618667199722,0.0457721925216414,-0.8827812351938359,0.4634052935415685,-0.9325920839519868,-0.8877836763393704,-0.5428656543098886,1.2964151950491445,-1.865023773139151,0.4549563183686119,-0.3530518992765994,-0.3879574778841574,-1.8578510341844268,0.8400763816730406,-1.4962513531282144,-0.4115998121004698,-1.1488392010507196,0.1419929625716215,0.7185632137822716,0.1753337080373042,-0.2694835371600395,8
-3.4391645891022877,-0.1113357401554742,0.0550261817513874,-0.3611628743918961,3.4893628454571286,-0.7856449206564583,1.5666352673163209,0.8479104605306447,-0.8845135344020051,0.2179297109896101,-0.3149905437879011,0.5581532301913497,-2.533191344991361,-0.0213967055746284,-0.1835368515448077,0.9997247066663492,0.0914975378374652,-0.7457196859240404,0.4547732737091498,0.4420445085138579,-0.5837986567498724,0.4629825214036215,0.0731471119419176,1.1972083325871297,-0.713255720827831,-1.6692592757109357,0.4227799989083129,-0.0374422410184228,-0.6620375668870977,8
6.687204845105257,2.8895781132943927,-2.607347150348602,1.0802322730927372,0.317531417261753,-1.4017546211520375,0.9181110279967392,-0.4915397330320722,-0.6169450854742745,-1.5772313815752448,-0.0982608005111911,0.7082214208024639,-0.892025475332751,-0.1867443896152274,-0.733636417212083,-0.4146634608863833,-0.7109428715832938,-0.8283185532179498,-0.050267398720437,-0.8858671782989486,-0.295123497976184,-0.2032112872657771,0.4738973876482839,-0.2804276002144258,-0.56817416523717,-1.543740622237868,1.400347776022474,-0.4570118347876712,-1.354451481673307,8
-3.508433563597721,0.634438630908131,-0.235076254475609,-0.1786875871985629,2.8522349342172992,-0.5619412695362905,2.7752622307381927,0.6850020086253293,-0.5774237535983002,0.3919886809819435,-0.3623870016345167,-0.1991638028439332,-1.7647441214493156,0.5221657749723924,-1.0908957096362135,0.7330980494799517,0.969785246473426,-0.5507604424797966,1.6243114739513689,-0.538290116386841,-0.2565029904045932,0.2509285383077382,0.2282272523270237,0.4493025000314778,-0.2553328331371846,-1.16345472997594,0.3829350273227768,-0.1864350301141971,-0.8332312832355461,8
-4.871172273096726,1.3277578523820697,-1.935462072479725,-0.4294142797964813,2.4957722433569978,-1.0899364338976174,2.121913030246028,0.919218882035332,-0.8733882883785403,-0.2115902502166014,1.7787652666782483,-0.471203350061668,0.996836272594242,1.1630758471421776,0.1713426406156692,1.7564659495481147,-1.430597006014492,-0.4298414795124533,-0.3701805788154105,2.587959248858002,2.308030692933627,-0.7240134440783687,-2.0223885419770222,1.4544056591792631,-1.4685581291760197,1.8938072827944528,-1.052103809166031,-2.196201414028501,0.9325418730012353,8
-6.817162107332429,1.9831225217370068,-1.1156624717091916,-0.0511944523918242,1.66954971349244,-0.1719896838449997,-0.0422837000471197,-1.1913684075293949,-0.8983632958984953,0.1332087220795752,1.3423759482515951,-2.7822351837048878,-1.6602031232729484,2.0080051059643718,-0.3182558278415079,-0.2104519770136334,-0.278103588147886,0.6707725012294137,-0.1699881864204941,0.9801678873588991,1.4010218879266978,-2.1912792744883816,1.5783509006546612,1.241828172943049,-0.0741057488972132,1.4630930521069838,0.514313244439067,0.1347620597310565,2.2531923507661475,8
-4.6227232992381655,0.2299874240994074,-1.0806036028066854,-0.007397369484818,0.6113372750884403,0.7553138877915057,0.1835123574473542,0.4208765469998693,0.1679665882938499,0.0241130338837273,0.7567936074924837,-0.1960125884993301,1.344979317467439,-0.2480796511017709,0.7409809756559528,-0.4688316531272055,-0.2595291040877824,-0.8348875573307254,-0.6357086573285055,0.4876583245265243,0.6396327754211267,1.1037126990833004,-0.7547071636055716,-0.0194386269050351,0.597854062890575,1.8951286524218816,-0.2533358368238019,-0.9674377324701884,-0.0555935513636892,8
-1.1209688199362458,0.2651558679906304,0.3056608624539716,-0.5065201853709494,1.163933822966182,1.181421950807622,-0.5456054551107662,-0.8781547514461854,0.4405710106050566,-0.4035821814152719,1.543200418372103,-0.4385883280808601,0.8052905553407936,0.5440936248693401,1.283703340970648,0.096143695952286,-0.172222554493756,-1.6472000758972691,0.3166241127753963,-0.166952029970969,0.3147553618001251,0.154495689968339,0.0587612217467047,0.4086169959743289,1.1187176296957346,1.5909677396219208,0.1098920916550658,-0.7125628411207465,0.3045216281815958,8
-3.814538133585397,0.2653566804357586,0.2252312524362767,0.1774471352711665,1.8548718812040697,0.6270403079675534,-1.7088776981044875,0.5447213879820515,-0.8286092827557545,-0.0743299912509425,-0.7214127073972092,-0.5111885685108477,-0.2839811820351061,-0.1460627908456864,0.3587601705275715,-2.160806314831395,-0.7332173634171072,1.0094368904765558,0.4994077021429255,1.105303926430285,-1.0310834354076577,0.4083516662811702,0.0992211714818307,-1.5979947708761095,-0.2947205573298092,2.24043020763678,-0.8261577472366298,-0.1212232969445081,0.4379614074379866,8
-1.474865063068417,1.3508018486671611,3.046291763816495,-1.0601940487990398,1.6405241686258814,0.6678186189251625,-1.8239647242297956,-0.4931831557532279,-1.6235063074290788,-0.7391085242971419,0.3811049583900336,-0.5829230922217895,-0.7589297403049072,-0.7229570438967251,0.918477058861084,-2.081221221652328,-2.0459531794197385,0.2352550507561918,1.415046823524314,-0.446855195641975,-0.2450839496602551,0.41006771449342,0.3036827419216433,-0.5665797259061994,-0.1586315632202934,0.5016273651439359,0.199312232609424,0.4751550338672446,1.168737422292089,8
2.3704293452380325,-2.0388614625553414,0.7335272843940934,-0.4433365720273665,2.481985623230984,2.2537779339142863,-1.8756909721334931,-0.1825421252706625,0.9547659616215792,-0.2722392823612097,0.3472415891326051,-1.423089625455305,-0.6940712416436543,-2.062064244260494,0.9867255091062972,-1.7493147867374506,-1.0602323053747922,-0.9346733516089788,0.4373872393252449,-0.3680672491772874,1.3544954224094268,0.4429565570666302,-0.0860621296635862,-0.2493526715190746,-0.1379155973530446,-0.4763952421901932,-0.50808269724419,0.1155900401113798,0.1226144529997293,8
-5.841842274943417,1.2087066961147512,1.2230928918270545,-0.2099058652380915,-0.7752762482758402,0.3197061521280979,1.1417590089662035,0.1675013394941931,-1.3174620294781083,1.295210543787678,0.2263771777984927,1.2469092555956724,1.5563294558960858,-1.066759034554703,-0.1235418753398834,-0.79670884201521,0.9487882937067788,-0.7565489610092978,0.5719487523637176,0.3293737202192972,-0.3877948725711813,0.3982473270909773,-0.8007006555833994,-0.6345834012209399,0.205038454337261,0.4405002104860942,0.7104271363658958,0.9824250080463028,-0.5241977040594473,8
-3.446741848355714,-1.3351529061529075,-0.7278237350142697,-0.0116275662544399,1.4490617795510308,1.5826754114921395,0.1166274539853171,-0.0844570351624735,1.4929833766035536,-2.127029884678276,1.088146006541114,1.2881057159601077,0.1681283909539916,-0.8239132879833545,-0.4246192905658972,0.2462809428504665,1.0155210430709938,-1.007825580321044,0.1248390204369507,-0.125263799691015,0.0480458724838784,0.0972954616075277,-0.9882614377067622,0.1579110949774217,0.7735772182107569,0.2782752030547519,0.1638143868718878,-0.0913186477471567,0.0809779763888217,8
1.0991903948188055,1.2275832715039223,-1.299858231724948,-0.5008534978545515,0.0403222567193544,0.6401047258684177,0.2400685208432234,0.4289684694398027,-2.2266160822769616,0.1491520365770501,0.617143686273218,0.2966662697786988,0.165559663151905,-0.9866026297607372,-0.3627490367210779,-1.3362172628185998,0.6587137512284951,-0.0101073721785309,-0.104734281963548,0.2807183663906443,-0.6462999002222015,0.0112477545933902,-0.034225029106031,-0.4214199478465107,0.3775146747399538,-0.2471447344037021,0.7232631157909797,0.9383508930546676,0.5618994851448863,8
1.4292538527308831,-1.525551205196631,-1.7079355614800555,-0.9750018886014382,0.0670247217899081,3.2644597958954944,-0.6286179948441795,2.1873767034126685,-0.8958970712763057,-1.751196811460679,0.197494639062438,-0.6759121498873364,0.1096826578023458,-0.3025770261873436,-1.3798221444705832,-0.6988982862755092,-0.4946009970388858,0.3710868634249928,-0.6903340206507057,0.9940625895124388,0.1570308264981327,0.7238275198530781,-0.4550418684934481,-0.1590210364363683,-0.156031191101449,-0.721039603739054,0.9340674162970198,0.2385297458797763,0.6947400912401669,8
-0.4501976938623936,-0.1447761150021321,-3.037749770942666,0.5294835444569043,-0.0982313036303824,-1.0346086488278643,-0.4270586728407552,-0.7112530366380606,0.9293688666701532,-1.0075758506721797,0.6738301815671837,-0.3764378207925832,-0.1132552632424325,1.5531849498547796,0.4519251743948106,0.6023502344599588,-1.556434942269428,-0.4969684244125739,-0.6785546454580991,-1.0053105576227683,1.200602506828279,0.0098627782382667,-0.4541684919203824,1.4980799581872255,-0.0001801057831876,0.0433882336180574,-0.2307912730839078,0.3283382995053382,-0.8570362805087418,8
-0.9760190331058252,-1.3532440396851866,-0.0710735475376777,-0.1871639411283646,-0.2821946419526466,-0.8897574421261596,1.7145234469464867,0.0400289263147774,-0.2315865147422355,0.6951595508971087,-0.0802855791554719,-1.2733569692711668,-0.631618551773021,2.396538273678809,1.0101062889510877,-0.2998537548725243,1.186633693065671,0.4366549226261776,-0.324288026685718,-0.3408989751477462,-0.6596414220670553,0.5090900442191973,0.0624871934952492,-0.2212802463824503,0.3907379740547418,0.8714614470759986,0.2380556133956823,0.2775681950371867,0.0877204463892777,8
2.4952164944208794,-2.2540024486067884,-0.4435144340788039,-0.3793264036121819,0.2162766067845136,-1.8782387870641224,2.5698738411909683,0.4174983246279314,0.5511225448247059,1.4644345864486223,0.558608899505685,-2.20565238559059,0.7700208034064511,0.7355525443811769,2.170916383037435,0.5820712649747577,1.6297548828970243,0.2034053631096488,-0.3976115498572616,1.1291123953148243,-1.2311005193747049,0.9286605374986636,0.3371077736094726,-0.3568058318575745,0.4420958667761323,0.5753695626297234,0.1980460201803285,0.8308604345092869,-1.107927996573194,8
0.0067293443603434,-1.331748803165882,-0.8590789183836357,0.1294301196616306,-0.9320526706732452,-0.9396461865286484,0.7462524605051888,-0.5119383379934491,-0.5440935192422856,-0.1544526646926512,0.0303677332651833,-1.113778174783323,-0.497807887821105,1.4801418693535424,1.0194032875403274,-0.1779726886565055,0.2566991168116355,0.7995533923304344,-0.7035265100797475,-1.3765969314661497,-0.6137269831728065,0.8567955267619015,0.3366322928327321,-0.4843137922936903,0.2053538699042366,0.7641661080373303,0.6054400836173498,0.9383989591324756,0.3071045334304776,8
-2.184258544223665,-1.9944299972017097,-1.7583982958510962,0.128295674426441,-0.4413271542811771,-0.2285685760453175,0.9601481179834974,-0.1029461356377797,0.006687832861921,0.3571085515151054,0.8516612144338638,-0.5996916600598351,0.119630357894735,0.2214088968831012,1.080897268706078,1.4022368527869773,0.4990409801713221,-0.5321661964990206,-0.2767428301070309,-0.8912642433810611,1.1845718508105707,0.4285851433334711,-0.082618255170871,0.0135582461102586,-0.2758388092251692,0.859322685872478,0.0066149500572308,-0.2955393492824231,-0.4973830786835866,8
1.9730351184365744,-2.632261096343193,-0.5329622446096814,-0.1125940098640503,-1.7502734646516822,-0.7719704087966809,0.9006666473853334,-0.2493679878737068,0.231255204859249,-0.2569484432258958,1.5077496649017506,-0.7626176110447128,-0.0887382122855321,1.4313952396877516,1.3174177161195926,1.100599505164851,0.6128748648053655,-0.857504642695493,-0.7984536108234551,0.2021013932022517,-0.3026223508199767,-0.0328915563111787,0.4103496989176166,0.0577478739332776,-0.3240975150012843,0.20388869819017,-0.7329772309201203,-0.5922928713414725,-1.090517191182873,8
0.3683969427598982,-2.632118002168524,-1.3596234712359614,-0.2868671680333587,-0.3671529246431593,-0.3187026714206872,0.7548865087728835,0.0193440959521371,1.3240669158645944,0.7710814096767459,0.5847794821916618,-1.5958240683315503,1.4212049655246992,-0.3903553437480853,1.497039140036524,-0.1261730899515674,0.8698869750276194,-0.9946710732623618,-0.4251618082027695,0.0008886821399791,-0.0717204799620421,1.2476597281304878,0.496836450717154,-0.6960412993210797,-0.4928721204391752,0.1210408438814438,0.222907987164525,-0.9280650631594084,1.2346047805756288,8
1.5266888406541472,-2.900896530482036,-0.8582505269380866,0.1451192217779249,1.7315321672921695,-2.090719547293035,2.3303488256417366,0.6928059362098493,-1.3963121939570218,1.4950139316945092,0.1781939143199096,-1.5760724698672612,0.8714435633439981,0.5981113274763779,1.2237985738820951,-0.1909039922395226,1.5122618835467203,0.3567137168347656,-0.1091078864319246,1.1030341398355967,-0.1054070796779047,0.8087405768122594,0.5307786866912227,-0.2360954860596452,0.0746900368418911,0.5392684434919198,-0.2363867098853165,-0.2649573698511494,0.0588325669191979,8
-5.086434157333535,0.5058657332494488,-0.2084929239299933,0.09970440719605,1.35008636898792,-0.8345470255350416,1.476589408342888,0.1680792793855698,-1.958867534312635,0.5263832626650738,0.7651717912244969,-0.3150500911412845,-0.6766994666673876,0.789315577250733,-0.5664205381611246,0.2821353661993387,1.45073774319151,-1.100273199122043,-0.26361011322904,0.371770495024687,-0.4520711574713167,0.3572646195246028,-0.0728737093915351,0.0881051722413682,0.5727687143059181,0.2968152185734989,0.3715245514031565,-0.3340472711136016,-0.1617063876424473,8
7.062320699332224,1.1549966460167298,-2.149387187383893,-0.0032221798652196,0.2794467186565225,-1.8880703674516133,-2.444459732019287,0.0460803174159715,-0.3710236136878029,-1.47472364321674,0.2270672151965408,-1.0637141053868575,1.747639077474615,0.3307623846129826,-0.5797734255150462,-2.161250007821983,-0.0826814972121883,-0.3836478685374394,-0.5161673401931098,-0.1059145284284747,1.5955005019871276,-0.3528558801209034,0.7980636620494028,1.2652140549507762,-0.6178264595005526,0.0358880404455714,1.0581801104047233,1.068955365153622,0.0712349545513084,8
5.202703384873674,-1.7959093597928553,-1.5370822553513217,-0.1344848005550514,0.3550430860609217,-1.305781612342252,-1.7472886139620227,0.1077217775416219,0.8194201320988503,-1.36793184172121,0.3413204248840619,-1.3998162723462475,1.5186492120410122,0.1476528471585242,-0.3410200705920934,-1.075407725501424,0.0274710314023801,0.0371526698112158,-1.5589751734617998,0.4893699117478598,0.4461508557594636,0.4034939132832234,0.2471604238130503,0.9282181622391616,-0.894515904513407,-0.3676646920662617,0.4499619096336105,0.8345440319497414,0.2254579470632677,8
5.075221456472891,4.371106763731453,-4.1204454186316894,-0.3247685506537321,0.4258394896976383,-0.3891421772487843,-1.1869494705320294,-0.1742977605774794,0.3843830591232611,-1.183899618622236,0.8040995796933814,-1.268257752969272,-0.5436803624963431,0.1685210373874211,0.1636044578038784,-0.2296546205141735,0.8785901846061553,-0.8744993223018438,-0.5264923912598765,-0.3632437482717472,0.4562023492915695,0.212338914372518,0.1486603786459389,0.6468263639410674,0.4258198390802494,0.5168058375221479,1.032775011186767,0.7479669226656782,-0.9068681888459388,8
-2.840149765361694,-1.3121566440861954,-0.5652273284777726,0.0116427657427263,1.331279203470053,-0.0991427590878689,1.0019852284121074,0.3497360045851261,-1.186689017636175,2.2812136285791387,-0.7047879041082034,-0.7842479565429784,-0.4756368885622999,-0.6471115113071614,0.7918505464185615,-0.0022920384659295,0.0747816969442919,1.014236339330137,0.9558534881021532,0.6844070145374883,0.6819246848593457,0.0761026808966101,0.720635986534623,-0.0585955824766711,-0.5597551102947569,1.2826816839812036,0.6594559108092628,0.2434597956611029,0.7746970689613062,8
-2.732810812307895,-0.631727413166399,0.6903621643270894,-0.1273268098966345,0.1335723686246885,0.1675589278146264,0.4327032216289821,-0.4430318182720613,-2.462170382128042,1.042111221453208,0.7819528358296951,-0.4935069820360178,-1.6146445633929878,0.6999150052965758,1.0896030464380486,-0.12252604585795,0.3547405549144189,0.940039044897014,0.8753127738791928,-0.2180809729842518,-0.0962904946029619,-0.4964990571170272,0.2999306667218478,0.6707896752232065,0.1270918519789955,-0.4066354559564472,-1.271513724937794,1.2351568822211108,-0.2525535928889774,8
-2.6469316647715235,-0.4287565568412404,0.4390203709055655,-0.2431060876449604,-0.7123029139907398,1.265729639901242,0.2347672065133021,-0.844097405945499,1.6901610139635754,-1.1576240387258674,-0.1168232430472638,0.5458367103427154,-0.1427284191672573,0.4140299720760224,-1.4345554318443658,0.394640756339303,-0.1224978065192865,1.0474003313515938,-1.4208272879578203,-0.2885754957825232,-0.429607332223117,-0.5175527532815116,0.5835882162840516,0.5906368893059727,-0.6072851128085183,0.1109800251250008,0.1123234802944447,0.0830241986373185,0.4825506434383429,8
-0.9050832439332276,0.460568492076142,-0.4139429122369198,7.378984809258938,-0.828340819133388,0.3710907305018356,1.379894154308999,-1.8689960345148928,-0.3221451886600904,-0.1470302516924635,-1.1094391412303743,-1.5925433387757335,-0.4314283393940371,-2.6279721091243244,-0.6463998567357847,1.2266741144381144,-1.2272266030282395,-0.2920776026998369,-1.2343947211650013,-0.6786632298869125,-1.6404494051739271,-1.4617435538304155,-0.4755155585526888,0.977534857966041,0.9554044067715532,-1.0159337039130842,1.6653147743233,-1.1649499049427332,0.1684537268138042,8
-1.1622198479394463,0.6613139676131106,-0.6985904339737948,-0.7496980480783967,0.1922106448849344,1.8649007880084687,-0.5535902522809045,-2.3988964567885835,0.4047220256494248,1.062327978118522,0.394024868020757,1.814668375885088,0.6297672743109229,1.798131544600368,-0.9964919270189392,0.7467191647248693,-0.6023751154243601,-0.1483780396490582,-1.9277353202359215,2.5742240658136346,-0.6239261805966367,-0.3200363441247023,1.1051621402718643,0.612756310939578,-0.1294968496586884,-0.7659910875160701,0.507947257657617,-0.1367306606915385,-0.1998206434644684,8
2.2408734321176462,-2.006617392253536,-1.434431495818907,4.118564451135803,-0.0833825933319213,0.0556005160929241,0.3170758135285079,-1.2626090476352312,-0.231441834056714,-1.8420234538689595,-0.6974963464348123,-0.4578083198369362,-1.4153481065106162,-1.1019195506984412,-0.7044590586005568,1.48790401708536,-0.169416579936908,0.6423697534274325,-0.7713233327803666,-0.7539971572773648,-1.3865095049257157,-1.0174006206116786,-0.3390780599956694,-0.1573629318802309,0.235074854381493,0.5474650414436317,1.5205575850279371,-0.1672251747742972,-0.5027965039702075,8
-5.634369460828931,4.511933869524756,-0.5840314998526258,-0.4101951020858931,0.9371434824112116,-0.4827524073788174,-0.654277695463187,-1.1825202594655528,0.4118160401597175,-0.483165385630802,1.3715391963555803,-0.9984939128812584,-0.3635883370621892,1.2216617827786154,-0.0980751143955685,1.588935260152321,-0.0064797258179663,-0.4543343352033385,-0.223603880538083,-0.3650847369582433,-0.8263793719771194,0.2923275224045547,0.4109902128212527,1.005744523126347,0.2041731938418715,-0.3132614316241734,-0.2406998037615385,0.5909886612445048,0.69180865587548,8
0.0435460748110205,1.6257602250902454,-0.1034043798246491,0.0931756886227634,0.2059456669507695,-0.7648803449709355,0.2549264776528318,-0.9603115392015418,-1.6500138396638078,-0.1751273306694844,1.5254547697007357,0.2684129986904922,1.1148766598985074,0.8842271692460019,-0.2753383106604347,-0.1685270413478262,-0.2593299077050743,-2.4577495379021275,-1.2049648532534916,0.6765826999216598,0.4098280814521963,0.8344999173566005,2.881988919351179,0.6138145723799981,-3.4197545040158284,-0.5104928737114032,1.6835930148890978,-0.7030150057496011,-0.5453780279338631,8
-1.2931055012703243,-1.6327807133086674,-0.7807700395728032,0.3228725939023293,-0.1939172467485418,-0.346936179982041,-0.9998339993663808,-0.2837213856301062,-2.329400889686344,0.3430702485664236,-0.1958952772635259,0.0535313363172702,-0.1529811216305696,0.1364358172012022,0.0416099298873465,-1.16994388401963,-1.0971708754499343,1.8515463005038872,0.5068678715559467,-0.1112854949512935,0.0222473349196067,0.3572087626471216,1.0393550439524637,0.3232762097655138,-0.5748739267997025,1.0709444335874692,-0.0866524716568376,0.7697614962532672,-0.0083718832334648,8
-3.994060019793515,-0.9352212096643436,0.1969905915587887,-0.1915608464511986,-0.0759624772712271,0.9429672028549028,-1.9129635133919536,0.5081903241699358,-0.6334234123346077,0.5679299168196223,-0.0654746050388184,0.0727609468933136,-0.0044803783630564,0.3486598646052108,1.7921778414727692,-1.0218908399795934,0.1937348213044072,-1.431781476183853,-0.3315443219023187,-0.1630090777853301,0.4243323379408212,0.0923348702909136,-0.290372165309086,0.4272914088382193,1.7650059529295283,0.1820804676196002,0.9478787729003268,-0.4436410672006822,0.2947079036402428,8
-5.4735068978910535,0.3566629297891387,-0.160871548842577,0.1175558753636678,-0.4208685122441661,0.9272351443595924,-2.120816943379076,-0.3110632069509849,0.5409238373809543,0.9185449678152904,-0.5012121498877513,-1.0861990262664614,-0.287773785481225,0.1744830821451306,-0.6050788948063595,0.3590450637794407,0.2027323158666554,-0.6233509042457261,-1.2960380951371795,-1.1649708594753274,0.5692971177441646,-0.1321037532683298,-0.3247725256609825,0.8602155649225782,0.3608534716202806,-1.3684224289940266,0.1291452853980796,0.1877854932033839,-0.530785369206065,8
-4.558040312080994,-0.3125425994309886,-1.5685437811416372,0.6903786148240757,-0.6751701996750405,-0.1192119097180516,0.6496969864538603,-0.3941580938809726,0.02074851672456,1.3468292134493105,-0.0527656148279418,-0.2869314802160135,0.7494241483869899,-1.128953028858191,-0.4550693702070028,0.1838373049037619,0.6690116458847997,0.9255176593157916,-0.0163896589346301,-0.9843790497344173,-1.2038524459518145,0.0914358447078041,-1.4323080328929834,0.1431590335652667,-0.1039648228524582,-0.5894250092221284,0.3805273287304109,1.3994480840449806,-0.3365510041963437,8
-2.094115766364842,0.0322842816846111,-0.2744666951357586,-0.5113550067421562,-1.843168094224645,1.5499901631098885,1.0507017071520823,0.8185892948465993,0.1945422381701523,0.5621929762648082,0.05023472032656,-0.4854434523875709,-0.2710034105230914,0.2179071780063162,1.016433325487323,0.532757432066753,-1.0687952912071448,0.6662105223363423,0.1163922559515602,-0.2070407269565406,0.0986406390888439,-0.1164287948952134,-0.8105246090918873,0.6158202807785947,-0.5311010243512478,-0.0466446059499162,0.5117631161455368,-0.3297030983055396,-0.0614338820702859,8
-1.280504661112687,0.6005290209382134,-0.8074440004590406,-0.1000740024136031,-2.056648777791287,-0.6479117955543829,-0.7729962790323744,-0.2319011123031653,-2.0186756869202744,0.2258193306116403,1.70886764069706,-0.5359240981293147,-0.0665107098582779,0.292741832731658,0.3955672343840115,0.3561626377849378,1.230593679598421,-0.9802774584261328,-1.3000275144359672,0.9896814415277528,-0.8379495848713541,0.0342833143106132,-0.1113028933243384,-0.6971436195855322,-0.3720051614633145,0.0108792593679313,-0.0140741942980254,0.1986434638119431,0.0696340470137815,8
4.615569404137103,3.394962815267143,-2.1483539611888265,-1.2649251536326342,1.0134220134510337,0.6099885925474043,-0.8780958501376167,-2.9997995886902133,1.28371720999406,0.4793236572536472,1.731485903561678,-0.3947704911920206,-0.5042608631761029,2.2348653940002663,1.6040733999973136,1.1093689069369177,-1.2934199968948394,0.0512801732198596,0.7979578381389008,1.589580236421523,-0.7961142019565308,-0.7272486798839473,-0.1594415693255185,-0.524169027099216,0.7413172667782073,0.247894694697785,-0.0915517370653367,0.8970891856108477,-0.9160112251511454,8
-4.736917927558979,0.5217552181246125,0.8837417930518431,-0.3963494945524395,-1.211359560147635,0.3936594210703941,-0.4916725071356362,-0.2253861370106992,-0.6486688379744275,0.3178543943909557,-0.6637340386969098,1.1071601939176925,-0.4259639589885389,0.1746524649497877,-1.769265925724881,-0.4170642996817837,0.0856326662927676,-0.1401830380053916,-0.2688006063234257,0.5684173349315947,0.7222445423081649,0.1783227676721779,-0.0271805730545631,-0.7744385106015859,0.5304363131755159,-0.8493445261405863,-0.2058538574180115,0.2079375131973765,0.8954387546265179,8
1.9589239420512763,-1.2820318083479196,0.0821080831404195,-0.2962939074441068,1.9401001053039075,-1.5840911817410277,2.0749108217623475,-0.0949114488774434,-0.8221260933041522,0.1401641188616254,0.5092540935138486,-0.5166688032626959,-0.5501582994093988,-0.3368474415308481,-0.929672170416392,0.6443631333810228,1.0022426791739056,0.511373229512842,1.125236798764995,0.2320576114734659,0.022167693894398,0.0520984157093632,0.2821020147465335,0.1884343684252409,-0.1109747206697504,-0.5091342354530266,0.4553176877646274,0.144584369039432,0.7301205932330497,8
-1.1331463205168952,-1.981998452115288,-0.1987849070967255,-0.1713730004551997,2.1890300773216578,0.520088568125405,1.4998062810614416,-0.732776024593632,0.4269344236688502,-0.3988750898035924,0.0347548960716506,-0.5678881484017358,-1.513721353097422,0.1482400931132282,-1.628176186931499,1.0857063337748034,1.3726014313192825,0.6870972038894414,0.7138017734039788,-0.4480575351581749,0.0151530622167125,0.2619261743297855,0.801014512308735,0.250593478060152,0.1745536964214624,-0.1528962923578969,0.2124278579262404,-0.0650367393911228,-0.0917619663908394,8
-0.7212225641260588,-1.7837517742987488,-1.4654497230021208,-0.0005261726381148,2.400907147693764,0.5522145405333866,1.5794842162652762,0.6944025625154755,-0.4975805920370707,-0.9695992841351077,-0.8998381992526738,-0.3769918108879477,-0.9582612115723442,1.4445196390276902,-2.366189990026198,0.1735644448549377,1.5834528147431388,0.5934859742355866,1.619421104369711,-0.7590993969763725,-0.6270475156642582,0.4328726335065916,0.5420495504533475,-0.0759210770999884,0.3779230383560528,-0.4958725359310576,0.3273893002571463,-0.4944933421056985,-0.3268181379138952,8
5.210059687192814,-3.111208841440827,1.1280836119352045,-0.6523603749163537,2.0448743227809394,-1.5740470513916671,1.6440051216789902,0.4807859926034248,-0.3562783093621373,-0.781458111424729,-0.8547702616950899,0.3092181716920077,-0.2545064664753484,0.6628747772358133,-1.2395170797684103,-0.6355456307506525,1.025047147813085,-0.5693915311687785,1.3238616790246895,0.5611376615090764,0.6202521597573619,0.2411718966733172,-1.2664081544205328,-0.0932510230692926,0.3754644913370947,-1.7123870837624795,0.8402642698660283,-1.3633359377881489,-0.7188857730617669,8
-2.472202726098227,-0.3019741372393865,0.8920254828239359,-0.3942648826288026,0.3728776963292811,1.201305279119156,-1.4820202390789812,0.0163772225385544,-0.1873958268561592,-0.4930959178667448,0.3636964784876176,0.6393779480967465,0.1743392917664806,-1.054724163102658,-0.0948210739876577,-0.5516803575804303,0.6770622346372063,-0.6119595673027823,0.4163413109414324,0.9423862834361708,0.2456950436898182,0.9131399943385092,-0.0388564840398433,0.5175127223681185,0.4073219199323814,-0.7303020198235493,0.3031202347458086,0.4108975652031419,-0.2049000851621421,8
-0.8054735002418137,-2.1147944121411517,1.0286511737735071,-0.6384796584010999,-0.3324252764208614,1.9378083998218727,-1.0173621640574582,-0.765588145009691,-0.3471350905657819,-0.588938991600565,0.3636425846518341,0.5097671806183667,-0.8659697837121473,-0.3025866167164834,-1.0823769575158622,-1.0386678196152044,0.4171966073389737,-0.9683839509248428,0.2339747051759269,-0.1567984009393799,0.2435579513560717,0.6835539219776231,-0.5500054767344459,0.0706039304071472,0.2788526483566459,-0.2433803358489029,0.1552744007705672,0.2840970384049255,0.9701681447929572,8
-1.2814194826268128,-1.6532360109915925,0.461099097058238,-0.1423958523037916,1.2722445528435442,1.6705454229014036,-1.2841365997176597,0.1255760598067052,0.408099889457009,0.2322836751900904,-0.6834471144288843,-1.0237229696642254,-1.851986283223206,0.1098844198229023,-0.8663122678768382,0.0598091764961062,0.706214869228752,0.1881446484776324,0.1713950223103777,0.0038268041929246,-0.2750349516424582,0.1074153419230608,0.1257816259341999,-0.1040842174728607,-0.7257570339515955,0.799087113275122,-0.3473955936456596,1.0700765099931655,-1.2612337863149772,8
-13.193002754984962,6.09222678267992,-0.3268705582143684,0.5770192141427329,-0.7801098061804703,-0.8395986455083705,0.7866735349132651,0.3743398310510469,-0.8061254625223655,0.4699327822859139,1.1694569157405132,1.1916116834157484,0.2608847816371868,0.5689537879473273,1.8257750025904744,0.6719704306018905,0.7390058420748555,1.4500443784378636,1.2793992640921588,1.4693906962420549,0.3970436279036802,0.0366894814657279,1.0148624520117646,0.5542874726565741,1.0849179328322882,-0.5669434588330738,-0.3130150233991321,0.6205748279608221,0.6437237547286029,8
-4.803740780691684,-0.1135719653958744,0.0806707709057728,-0.2894136734230682,0.091895679460862,1.0249474795145572,2.1015769105072537,-0.1107450492012633,1.8186259893177623,-0.0737106607146431,0.0447259120174043,0.7850895376415994,1.9863422885864768,-0.5435644148841974,0.2526209619222331,-0.5013377420894645,0.261415363844819,0.062862050724558,0.126747788745768,0.4047079257555745,0.6868352797497489,0.5135888940731903,-0.1503568382475649,-0.5733371380483053,0.4190085038644033,0.5083424731442436,-0.682276563565152,-0.3529632487305937,0.7239205179462673,8
1.658311606561003,-2.859078341663482,-0.4071540953722177,-0.3945745254819013,0.3304023809425693,0.6009265097230263,0.2725320462605846,-1.1673915659017426,0.7284384018252309,-1.5025189508407073,1.075862169014261,0.0058414733126372,-0.75471707803541,-0.3388596713608479,0.1316539934066716,-0.2320661841712369,-0.6019651919173826,-0.2177101253903583,1.024169698092847,-1.7998568461543114,1.4105125149375994,-0.0014332862847153,0.3483869553941826,-0.3003869371174693,0.4837586999600963,-0.405292911649077,0.5218208826112029,0.4572474485319365,0.7483323021807843,8
-4.803427401237394,-0.7297166880804138,-0.6209363213986482,-0.0242926819675299,-1.49586539885423,0.5921450068546198,0.7732177706773707,-0.2402411853462318,-1.4339809465601745,1.0815360667151792,0.4224260655281283,0.9862254745171553,0.0804537873309162,0.0498556117228452,0.8232638524742351,-0.6005996121668977,-0.3387574939874146,-0.2525111619735994,0.7359907509187922,-0.2731942763455375,1.0150665131768444,-0.0235952389265797,-0.5550046695745224,0.6598264421046963,-0.2006368776598718,-0.6786809208116211,0.3943649570641761,0.1562590427516871,-0.1343275129249395,8
2.4503762126375275,-3.580049209536156,-2.4953406605722623,-0.2449431098304765,0.5401118662449738,3.1693513318997706,0.9936391114124614,2.8460586706062205,-2.26127170547381,-0.4961648048132922,0.2217333171936585,-0.1917293036011517,1.6470958909023703,-0.616211403556694,-0.5434854122083917,-1.1325669629579136,-0.8052171516910716,0.199533776859434,-0.2999679886832649,1.3117180676691054,1.1600189655638553,0.3269930092671624,0.1500041167844872,-0.5095172907353368,0.5896351426606256,-0.2077507887124265,0.2895901147027655,0.0536870562076835,-1.093297992713422,8
1.12344297657272,-2.707187352438185,1.3452784431428275,-0.203593811992808,-0.8826921335214182,0.8011592757189501,0.327089615136242,-0.4626562908117049,-1.569928475190658,-0.3901502651464986,0.392849686739116,1.1864844592928627,0.4041986113729911,0.7290792042115438,0.2613212260555955,-1.9864116028282968,0.0671654566523377,-0.2109237224564957,0.4378091915877261,-0.1151066555623164,0.9101057907665784,-0.3465983155562018,-0.3473685620362783,-0.4925362988837952,0.4321693015433053,0.0251502674444673,-0.0762139306860009,0.2070687743622027,-0.4416371775415318,8
1.289174688490765,-3.081757660070472,0.7414284656189242,-0.4938240158429367,0.1778448957867162,1.6277600300746955,0.1344725623465425,-0.8252791597528685,0.5457420520874761,-1.109401346587986,0.064555473365315,0.3549879024789742,-0.2571265090125181,0.8222349263459212,0.3738852854225883,-1.5693818811379856,0.0780984615705546,-0.0811594093142952,0.2331394846015703,-0.7818673359602634,0.6473958035934265,-0.2976773312288758,-0.5103957463991634,-0.6582261343367001,-0.1137575512224463,-0.1082963949037813,0.3654385699895677,0.053355449010591,0.5413013797393642,8
3.9479683328591744,-3.467431188901722,-1.0346158719610925,-0.3603321392019357,0.3790088155053034,3.84237924416507,1.4614845723569705,3.8044825633982864,-2.018225191693426,-0.5663623800716441,-0.4029385368470773,-0.243749897920989,1.8765172719937533,0.5775386960787867,-0.3308506466509166,-0.4029887133258696,-0.3253508509672598,0.2070913419195179,0.4855002026819591,-0.3867553933247714,0.2976223646392967,-0.6002079107182637,-0.5288395362777532,-0.1939154098247293,0.0198254260026176,0.5473017283277355,-0.8581750342879642,0.3241412528643839,-1.588589219822764,8
-2.7052418830218965,-1.6416779991679682,-0.6319502152732179,0.5841107652738616,-0.8702383113198565,0.8335799794364747,0.6362176323003622,-1.1818293799173747,-0.4264663057422391,-0.2336226930986903,0.5162177225281191,0.654209668090825,0.0036746839321469,0.3743413762708866,-0.3430575427374061,-0.3850160548650402,-0.64864554226504,1.2169403835511634,-0.3249345668457515,-1.57312437469773,-0.0276474010097662,-1.2277852047907214,0.263768356062136,-0.0006401518176695,0.5022693462392631,-0.4906075262275343,0.055609231941249,-0.8582554389432387,0.1898295214759698,8
1.0245396584526458,-2.8139465345202392,-0.4359162821726776,0.183272726688557,0.5493237351027918,-0.484712819376262,-1.432315748757706,-0.0417879271967002,-3.3104117499940444,0.4145129188517345,0.9768687787726412,0.7394766228808903,-0.2305429738422669,-1.860195094995168,0.2597304767097758,-1.1776107771666502,-0.5639588856250318,-0.8579812811819029,1.58563279931197,0.1958766367494915,1.3689981525198909,0.0468239217436823,0.1270169781873227,-0.9571404772097738,0.9028471282959976,-0.0191922721449394,-0.5837861763660965,-0.7787746560604365,-0.7084551690540011,8
-4.729389437276798,-1.04970851845636,-1.2708689695847086,0.1161711057239874,-0.1928773575944082,1.1695528257164445,0.8054894985303069,-0.135360693171674,1.3286876700046018,0.8948817252566481,-0.6263884186120652,0.4156270727224792,-0.162165804030799,-0.2918440123957477,0.4302693382977384,-0.1319320595695001,-0.2078674598463145,-0.0437832060176682,0.2651833405498778,-0.9018191253725182,1.1540567406658506,0.2177058269932698,0.1416483489366437,0.3353641770908457,0.1468172404331057,-0.2824748872298384,0.3044466533224169,-0.0288391996644034,0.100280446712543,8
2.861481873645733,-3.2699330954293284,1.10724893388303,0.3141520939872198,0.6463750395928127,0.4238019359201868,1.930451116201944,-0.4334403738784043,0.7760450052955953,0.4004598092009473,-0.1125352377563841,-0.0135853973902618,0.9739976131718784,-1.3089201373702892,1.1778920406108375,0.3346146291349676,-0.3178205408767859,0.0862108443108983,0.0972968551070142,-1.208128765857008,-0.3669949454504964,-0.1113872746375003,0.6290353583356816,0.1639236219590723,-0.163837898886856,0.152631978499297,-0.0115834227652567,0.087550890943242,-0.3867186446781092,8
3.795158651434699,-3.6988215415480896,1.451730325924231,-0.2501103473109045,-0.571686221043506,0.685956529771424,0.6358074974496982,-0.3245630041410203,0.629548680817237,-0.485001388048042,0.2377786051215919,0.5399695837319383,-0.1333715345731546,0.2137725933529458,1.143451390912091,0.3315982438004953,-0.4094166301076505,0.8150676888785299,-0.7709585666484168,-0.6677621257827703,-0.4221626546768238,-0.5320038638289825,0.8103406099891725,0.4233818529364622,-0.4089086421816361,0.0692541083349669,-0.5763220335689072,0.055742781936565,0.0732059928816449,8
1.6168292999359852,-3.729779320072211,0.6359257253137404,-0.0119054584404137,0.4155132760784297,0.5394311388785662,1.3398210340938346,-0.3211050452556598,0.1179858637663257,0.5345052317619517,0.2401294790647552,0.4511616783495548,0.4014259617569479,-0.947784620549508,0.7055460351404761,0.4715379732151165,-0.4349042145780244,0.2995074683096588,-0.1125202893971277,-0.917077872430032,0.7562282022629698,-0.5047228182864805,0.8734268075856505,0.6620935224561255,0.4338241847952548,-0.0996740781811492,-0.1186789766941041,0.495348622435085,-1.0096570210492173,8
-0.7731542237614311,-2.224683167945431,-0.0685435500287063,-0.1755867658303396,0.666404520646461,1.448035986967024,-2.7155112257327056,0.5200823221754933,0.0881549620210487,-1.0613272542034995,-0.0854160433658444,0.6704818745501587,-0.419364063211435,-0.307376869127444,0.5521412468265197,-0.5106040232504074,1.370213436985691,-0.142150976833845,0.0620491156176258,1.334098244636858,-1.0962213332398738,0.2062949764950862,-0.547553033668853,0.1028597924713948,0.2697663996815879,0.4663733962003346,0.8802559152075125,-0.0528696705664587,0.1767431945775676,8
-1.4136336386157788,-1.1229512913417723,0.2518723974017316,-0.2879505115140396,0.360294142157014,2.4153298055784247,-1.509058186183336,0.4063259188367849,1.149855644569962,-0.3121719013493773,-0.482070628053277,-0.1961353918114487,-0.2223233612343434,-0.169942543110183,-0.6071625205081379,-1.0370755562656693,0.5260199747543826,-1.157883342649177,0.5683548195715976,0.0244428769708829,-0.5237701365960425,-0.0495355709745189,-1.0393416072649109,0.3653981815861417,0.354312853986047,0.5126440783785674,0.5551998758971475,-0.0423430822803267,-0.5514953080548696,8
-1.0980702695105848,-0.0138845969568903,1.0359254639138489,0.0836920497028375,1.5258141411281068,2.7982689570359494,-1.8556722650995885,2.028942183317551,1.4435304467949743,0.0874110504700889,-0.7978490452341617,-0.1649951602727555,1.8393814346525064,-1.3824064297331626,1.406169865173755,-0.5760890519959264,2.089389261446672,-2.2054861056218686,1.6084464084303478,-0.4806410233173329,-0.8593035158319812,-1.7311775803345548,-0.3828474507904763,0.3615105351453576,2.0695590390776424,-0.6259554379781955,0.8816859214333259,0.3990349915659033,-0.0403208791192451,8
1.2606680243199366,-1.834043862719404,0.2936215995635975,-0.5021659184603897,0.4131818553384861,3.080006709403747,-2.1833698438878804,2.425354013011654,-1.2638667177433565,-0.6659267790184754,-0.152720000610726,-0.0339151847627296,0.0599198083364103,-0.614453534209807,0.0939400399594528,-0.0727671327172804,0.5898261524958708,-0.812401831024273,0.8394722484589962,0.3754942188401117,-0.078314703180954,-0.468663855242912,-0.7168599687705854,0.1999967139503124,0.17962522238198,0.3886062663242706,0.9234214199198976,-0.0550344528949297,0.2195887596703986,8
-4.133520850281282,8.004290124582168,-3.228949981194233,0.0993187376949034,0.2039399802373081,-2.9681285676635034,-1.5709861573982893,0.5955626491595152,1.5446050326352807,-1.7102883617649778,1.1459314486922976,-0.9728225377032006,0.7851067852022956,0.3978549373993385,0.4403257468140675,-0.4187973113052531,0.3017476798951992,-0.2983328357359247,0.3248061281141982,0.596873654729856,-0.6882189792923588,0.9448602121241374,-0.769568819198381,-0.1121667785922207,0.9566040428677084,0.401167961372069,-0.2501566213733011,0.7568868385398047,0.8121709639547857,8
-4.717794798459047,1.8270258919496185,0.5930698035120956,0.889452069249493,-0.1184166914067295,-0.6252894610202471,-4.73134177177999,0.8200487267083835,-1.2224591016215325,-1.009329344470379,-0.2955570435132169,-0.6492937250091322,0.436436321132132,-1.2207432612989602,1.0912767503786338,1.2968200760548192,0.3718345763185448,1.111350504762081,-0.2308297964971417,0.4304359714759867,-0.48371467074689,0.573560103959484,-1.4902669973518297,-0.3628490150928454,1.282823312584736,0.8308410703464431,0.4390926375907456,-0.4094160227916427,-0.6751346551886815,8
-3.492080199957784,0.8105633312716798,0.3837155784283103,0.8273838797547483,-0.5753611722551657,-0.674216680558614,-4.152551913183427,0.276376120747091,-2.00716888364312,-0.9950598044274294,0.1773556617224728,-0.4631246654504594,0.4410954322407332,-0.9346121808709034,0.055936722654567,0.0779119360818483,-0.193799687774387,0.5219700780259559,-0.519938405759,0.0239912821346803,-0.1742613510141963,0.640854811418361,-0.931214635506516,-0.3625028237423742,1.2314515730788405,0.1930027306209244,0.6688468765982332,-0.6956995023132816,-0.097028737178105,8
-0.4610893208246835,0.0754092499883848,1.8889771329085283,-0.4843298080862682,0.7075741167743952,-0.1885576133961992,-2.806557371097961,-0.402189632024058,-2.164369610961157,0.0391494833369451,-0.2853971100426867,-1.863916025183306,-0.5704553456350523,-0.001518268519784,-0.8343097943368915,0.1299522877919971,-0.2350908459814853,0.3784554263877354,0.4513847063095199,-0.5517320074285481,0.8305752023499811,1.0373501059149708,-0.2501565835766019,-0.1472800967239822,-0.6322471591497245,0.6981604351928966,0.2323993942834404,0.0155997966410421,-0.5841044553465654,8
-4.293471080580559,0.5330174400500399,-0.7891797981281466,-0.1532541656061602,-0.6276539997903638,1.0345739320686076,-0.4108396095203028,-0.1423530097195979,2.450083336339908,0.3513762746478802,-0.9603993506080896,-0.273688361801654,-0.4171183256892589,0.6432557331865401,0.6862841998444975,-0.4175341050294675,-0.4513986441346506,-0.2712234704117472,0.7653734553742954,-0.4055382167135092,0.6963578980214284,-0.5728057879448694,-0.6135609258355172,-0.0664488101843225,0.2469612614825551,-0.157279410159999,0.5807755084137012,0.0199196206556609,-1.2490537322123345,8
